timestamp [s];actual_current [A];target_current [A];timestep [us];motor_torque [N.m];encoder_paddle_pos [deg];speed estimate [deg/s];speed estimate hall [deg/s];acc estimate [deg/s^2];acc estimate hall [deg/s^2];hall_voltage [V];est angle hall [deg];filtered hall speed [deg/s];filtered hall acc [deg/s^2];cutoff freq [Hz];stiffness [N.m/deg];damping [N.m/deg];rest position [deg];ref_pos [deg];k_p;k_i;k_d;set PID 0/1;start dry test 0/1;friction torque [N.m];Dry friction compensation;Viscous friction compensation;Gravity compensation;Virtual wall;Virtual wall automatic;Wall stiffness [N.m/deg];Wall damping [N.m/deg/s];zero_cross_count;Wall filter [Hz];set EMG torque;set EMG position;EMG value [V];Filtered EMG value [V];EMG time threshold [us];EMG diff [V];EMG min [V];EMG max [V];EMG offset [V];EMG window;EMG mean [V];EMG precise;EMG hold active;EMG hold value [V];EMG hold thres [V];led_0 [0.0-1.0];led_1 [0.0-1.0];led_2 [0.0-1.0];led_3 [0.0-1.0]
184.53645;-0.004003158771;0;350;0;-29.0859375;0;0;0;0;2.117604494;-20.48226929;-0.5026962757;4074.22876;15;0;0;0;0;0;0;0;0;0;0;0;0;0;0;0;0.001000000047;0;0;0;0;0;1.357142925;1.330781579;1000;0.0003906488419;1.221433997;1.222239017;0.002000000095;100;0.0007352176472;0;0;0;0.001000000047;1;0;0;0
184.5375;-0.004003158771;0;350;0;-29.0859375;0;0;0;0;2.117604494;-20.48226929;-0.5026962757;4074.22876;15;0;0;0;0;0;0;0;0;0;0;0;0;0;0;0;0.001000000047;0;0;0;0;0;1.36202693;1.330637097;1000;0.0003906488419;1.221433997;1.222239017;0.002000000095;100;0.0007368839579;0;0;0;0.001000000047;1;0;0;0
184.53855;-0.004003158771;0;350;0;-29.0859375;0;0;0;0;2.117604494;-20.48226929;-0.5026962757;4074.22876;15;0;0;0;0;0;0;0;0;0;0;0;0;0;0;0;0.001000000047;0;0;0;0;0;1.358974457;1.332489729;1000;0.0003906488419;1.221433997;1.222239017;0.002000000095;100;0.0007409321261;0;0;0;0.001000000047;1;0;0;0
184.5396;-0.004003158771;0;350;0;-29.0859375;0;0;0;0;2.117604494;-20.48226929;-0.5026962757;4074.22876;15;0;0;0;0;0;0;0;0;0;0;0;0;0;0;0;0.001000000047;0;0;0;0;0;1.350427389;1.331669807;1000;0.0003906488419;1.221433997;1.222239017;0.002000000095;100;0.0007445859956;0;0;0;0.001000000047;1;0;0;0
184.5403;-0.004003158771;0;350;0;-29.0859375;0;0;0;0;2.117604494;-20.48226929;-0.5026962757;4074.22876;15;0;0;0;0;0;0;0;0;0;0;0;0;0;0;0;0.001000000047;0;0;0;0;0;1.336385965;1.331890702;1000;0.0003906488419;1.221433997;1.222239017;0.002000000095;100;0.0007468855474;0;0;0;0.001000000047;1;0;0;0
184.54135;-0.004003158771;0;350;0;-29.0859375;0;0;0;0;2.117604494;-20.48226929;-0.5026962757;4074.22876;15;0;0;0;0;0;0;0;0;0;0;0;0;0;0;0;0.001000000047;0;0;0;0;0;1.31929183;1.331914067;1000;0.0003906488419;1.221433997;1.222239017;0.002000000095;100;0.0007504521054;0;0;0;0.001000000047;1;0;0;0
184.5424;-0.004003158771;0;350;0;-29.0859375;0;0;0;0;2.117604494;-20.48226929;-0.5026962757;4074.22876;15;0;0;0;0;0;0;0;0;0;0;0;0;0;0;0;0.001000000047;0;0;0;0;0;1.278388381;1.329917789;1000;0.0003906488419;1.221433997;1.222239017;0.002000000095;100;0.0007539766957;0;0;0;0.001000000047;1;0;0;0
184.54345;-0.004003158771;0;350;0;-29.0859375;0;0;0;0;2.117604494;-20.48226929;-0.5026962757;4074.22876;15;0;0;0;0;0;0;0;0;0;0;0;0;0;0;0;0.001000000047;0;0;0;0;0;1.322344422;1.329998732;1000;0.0003906488419;1.221433997;1.222239017;0.002000000095;100;0.0007581029786;0;0;0;0.001000000047;1;0;0;0
184.5445;-0.004003158771;0;350;0;-29.0859375;0;0;0;0;2.117604494;-20.48226929;-0.5026962757;4074.22876;15;0;0;0;0;0;0;0;0;0;0;0;0;0;0;0;0.001000000047;0;0;0;0;0;1.334554434;1.326909423;1000;0.0003906488419;1.221433997;1.222239017;0.002000000095;100;0.0007622358971;0;0;0;0.001000000047;1;0;0;0
184.54555;-0.004003158771;0;350;0;-29.0859375;0;0;0;0;2.117604494;-20.48226929;-0.5026962757;4074.22876;15;0;0;0;0;0;0;0;0;0;0;0;0;0;0;0;0.001000000047;0;0;0;0;0;1.344932914;1.32584548;1000;0.0003906488419;1.221433997;1.222239017;0.002000000095;100;0.0007640898111;0;0;0;0.001000000047;1;0;0;0
184.5466;-0.004003158771;0;350;0;-29.0859375;0;0;0;0;2.117604494;-20.48226929;-0.5026962757;4074.22876;15;0;0;0;0;0;0;0;0;0;0;0;0;0;0;0;0.001000000047;0;0;0;0;0;1.349816918;1.322140932;1000;0.0003906488419;1.221433997;1.222239017;0.002000000095;100;0.0007657261449;0;0;0;0.001000000047;1;0;0;0
184.5473;-0.004003158771;0;350;0;-29.0859375;0;0;0;0;2.117604494;-20.48226929;-0.5026962757;4074.22876;15;0;0;0;0;0;0;0;0;0;0;0;0;0;0;0;0.001000000047;0;0;0;0;0;1.299755812;1.321715474;1000;0.0003906488419;1.221433997;1.222239017;0.002000000095;100;0.0007672976935;0;0;0;0.001000000047;1;0;0;0
184.54835;-0.004003158771;0;350;0;-29.0859375;0;0;0;0;2.117604494;-20.48226929;-0.5026962757;4074.22876;15;0;0;0;0;0;0;0;0;0;0;0;0;0;0;0;0.001000000047;0;0;0;0;0;1.303418875;1.322300076;1000;0.0003906488419;1.221433997;1.222239017;0.002000000095;100;0.0007697740803;0;0;0;0.001000000047;1;0;0;0
184.5494;-0.004003158771;0;350;0;-29.0859375;0;0;0;0;2.117604494;-20.48226929;-0.5026962757;4074.22876;15;0;0;0;0;0;0;0;0;0;0;0;0;0;0;0;0.001000000047;0;0;0;0;0;1.346764445;1.32410872;1000;0.0003906488419;1.221433997;1.222239017;0.002000000095;100;0.0007709929487;0;0;0;0.001000000047;1;0;0;0
184.55045;-0.004003158771;0;350;0;-29.0859375;0;0;0;0;2.117604494;-20.48226929;-0.5026962757;4074.22876;15;0;0;0;0;0;0;0;0;0;0;0;0;0;0;0;0.001000000047;0;0;0;0;0;1.295482397;1.323869944;1000;0.0003906488419;1.221433997;1.222239017;0.002000000095;100;0.0007698793197;0;0;0;0.001000000047;1;0;0;0
184.5515;-0.004003158771;0;350;0;-29.0859375;0;0;0;0;2.117604494;-20.48226929;-0.5026962757;4074.22876;15;0;0;0;0;0;0;0;0;0;0;0;0;0;0;0;0.001000000047;0;0;0;0;0;1.348595858;1.32357955;1000;0.0003906488419;1.221433997;1.222239017;0.002000000095;100;0.0007670419873;0;0;0;0.001000000047;1;0;0;0
184.55255;-0.004003158771;0;350;0;-29.0859375;0;0;0;0;2.117604494;-20.48226929;-0.5026962757;4074.22876;15;0;0;0;0;0;0;0;0;0;0;0;0;0;0;0;0.001000000047;0;0;0;0;0;1.36202693;1.326407671;1000;0.0003906488419;1.221433997;1.222239017;0.002000000095;100;0.0007639386458;0;0;0;0.001000000047;1;0;0;0
184.5536;-0.004003158771;0;350;0;-29.0859375;0;0;0;0;2.117604494;-20.48226929;-0.5026962757;4074.22876;15;0;0;0;0;0;0;0;0;0;0;0;0;0;0;0;0.001000000047;0;0;0;0;0;1.371184468;1.329080462;1000;0.0003906488419;1.221433997;1.222239017;0.002000000095;100;0.0007610992179;0;0;0;0.001000000047;1;0;0;0
184.5543;-0.004003158771;0;350;0;-29.0859375;0;0;0;0;2.117604494;-20.48226929;-0.5026962757;4074.22876;15;0;0;0;0;0;0;0;0;0;0;0;0;0;0;0;0.001000000047;0;0;0;0;0;1.318070889;1.326840997;1000;0.0003906488419;1.221433997;1.222239017;0.002000000095;100;0.0007597060758;0;0;0;0.001000000047;1;0;0;0
184.55535;-0.004003158771;0;350;0;-29.0859375;0;0;0;0;2.117604494;-20.48226929;-0.5026962757;4074.22876;15;0;0;0;0;0;0;0;0;0;0;0;0;0;0;0;0.001000000047;0;0;0;0;0;1.314407825;1.328893423;1000;0.0003906488419;1.221433997;1.222239017;0.002000000095;100;0.0007589377929;0;0;0;0.001000000047;1;0;0;0
184.5564;-0.004003158771;0;350;0;-29.0859375;0;0;0;0;2.117604494;-20.48226929;-0.5026962757;4074.22876;15;0;0;0;0;0;0;0;0;0;0;0;0;0;0;0;0.001000000047;0;0;0;0;0;1.327228427;1.331155539;1000;0.0003906488419;1.221433997;1.222239017;0.002000000095;100;0.0007587783039;0;0;0;0.001000000047;1;0;0;0
184.55745;-0.004003158771;0;350;0;-29.0859375;0;0;0;0;2.117604494;-20.48226929;-0.5026962757;4074.22876;15;0;0;0;0;0;0;0;0;0;0;0;0;0;0;0;0.001000000047;0;0;0;0;0;1.34065938;1.332982063;1000;0.0003906488419;1.221433997;1.222239017;0.002000000095;100;0.0007592990296;0;0;0;0.001000000047;1;0;0;0
184.5585;-0.004003158771;0;350;0;-29.0859375;0;0;0;0;2.117604494;-20.48226929;-0.5026962757;4074.22876;15;0;0;0;0;0;0;0;0;0;0;0;0;0;0;0;0.001000000047;0;0;0;0;0;1.342490911;1.332017899;1000;0.0003906488419;1.221433997;1.222239017;0.002000000095;100;0.0007621552795;0;0;0;0.001000000047;1;0;0;0
184.55955;-0.004003158771;0;350;0;-29.0859375;0;0;0;0;2.117604494;-20.48226929;-0.5026962757;4074.22876;15;0;0;0;0;0;0;0;0;0;0;0;0;0;0;0;0.001000000047;0;0;0;0;0;1.344932914;1.332545757;1000;0.0003906488419;1.221433997;1.222239017;0.002000000095;100;0.0007674268563;0;0;0;0.001000000047;1;0;0;0
184.56025;-0.004003158771;0;350;0;-29.0859375;0;0;0;0;2.117604494;-20.48226929;-0.5026962757;4074.22876;15;0;0;0;0;0;0;0;0;0;0;0;0;0;0;0;0.001000000047;0;0;0;0;0;1.326617956;1.33256948;1000;0.0003906488419;1.221433997;1.222239017;0.002000000095;100;0.0007710143691;0;0;0;0.001000000047;1;0;0;0
184.5613;-0.004003158771;0;350;0;-29.0859375;0;0;0;0;2.117604494;-20.48226929;-0.5026962757;4074.22876;15;0;0;0;0;0;0;0;0;0;0;0;0;0;0;0;0.001000000047;0;0;0;0;0;1.258241892;1.330306888;1000;0.0003906488419;1.221433997;1.222239017;0.002000000095;100;0.0007758230204;0;0;0;0.001000000047;1;0;0;0
184.56235;-0.004003158771;0;350;0;-29.0859375;0;0;0;0;2.117604494;-20.48226929;-0.5026962757;4074.22876;15;0;0;0;0;0;0;0;0;0;0;0;0;0;0;0;0.001000000047;0;0;0;0;0;1.297313929;1.329601765;1000;0.0003906488419;1.221433997;1.222239017;0.002000000095;100;0.0007819115417;0;0;0;0.001000000047;1;0;0;0
184.5634;-0.004003158771;0;350;0;-29.0859375;0;0;0;0;2.117604494;-20.48226929;-0.5026962757;4074.22876;15;0;0;0;0;0;0;0;0;0;0;0;0;0;0;0;0.001000000047;0;0;0;0;0;1.229548216;1.326417446;1000;0.0003906488419;1.221433997;1.222239017;0.002000000095;100;0.0007899550255;0;0;0;0.001000000047;1;0;0;0
184.56445;-0.004003158771;0;350;0;-29.0859375;0;0;0;0;2.117604494;-20.48226929;-0.5026962757;4074.22876;15;0;0;0;0;0;0;0;0;0;0;0;0;0;0;0;0.001000000047;0;0;0;0;0;1.316849947;1.325879812;1000;0.0003906488419;1.221433997;1.222239017;0.002000000095;100;0.0007996021886;0;0;0;0.001000000047;1;0;0;0
184.5655;-0.004003158771;0;350;0;-29.0859375;0;0;0;0;2.117604494;-20.48226929;-0.5026962757;4074.22876;15;0;0;0;0;0;0;0;0;0;0;0;0;0;0;0;0.001000000047;0;0;0;0;0;1.326007366;1.326248884;1000;0.0003906488419;1.221433997;1.222239017;0.002000000095;100;0.0008078688406;0;0;0;0.001000000047;1;0;0;0
184.56655;-0.004003158771;0;350;0;-29.0859375;0;0;0;0;2.117604494;-20.48226929;-0.5026962757;4074.22876;15;0;0;0;0;0;0;0;0;0;0;0;0;0;0;0;0.001000000047;0;0;0;0;0;1.336385965;1.325535297;1000;0.0003906488419;1.221433997;1.222239017;0.002000000095;100;0.0008162052836;0;0;0;0.001000000047;1;0;0;0
184.56725;-0.004003158771;0;350;0;-29.0859375;0;0;0;0;2.117604494;-20.48226929;-0.5026962757;4074.22876;15;0;0;0;0;0;0;0;0;0;0;0;0;0;0;0;0.001000000047;0;0;0;0;0;1.314407825;1.322401285;1000;0.0003906488419;1.221433997;1.222239017;0.002000000095;100;0.0008210321539;0;0;0;0.001000000047;1;0;0;0
184.5683;-0.004003158771;0;350;0;-29.0859375;0;0;0;0;2.117604494;-20.48226929;-0.5026962757;4074.22876;15;0;0;0;0;0;0;0;0;0;0;0;0;0;0;0;0.001000000047;0;0;0;0;0;1.325396895;1.323907256;1000;0.0003906488419;1.221433997;1.222239017;0.002000000095;100;0.0008275487926;0;0;0;0.001000000047;1;0;0;0
184.56935;-0.004003158771;0;350;0;-29.0859375;0;0;0;0;2.117604494;-20.48226929;-0.5026962757;4074.22876;15;0;0;0;0;0;0;0;0;0;0;0;0;0;0;0;0.001000000047;0;0;0;0;0;1.310134411;1.323958158;1000;0.0003906488419;1.221433997;1.222239017;0.002000000095;100;0.0008336731698;0;0;0;0.001000000047;1;0;0;0
184.5704;-0.004003158771;0;350;0;-29.0859375;0;0;0;0;2.117604494;-20.48226929;-0.5026962757;4074.22876;15;0;0;0;0;0;0;0;0;0;0;0;0;0;0;0;0.001000000047;0;0;0;0;0;1.312576413;1.324647784;1000;0.0003906488419;1.221433997;1.222239017;0.002000000095;100;0.0008390201838;0;0;0;0.001000000047;1;0;0;0
184.57145;-0.004003158771;0;350;0;-29.0859375;0;0;0;0;2.117604494;-20.48226929;-0.5026962757;4074.22876;15;0;0;0;0;0;0;0;0;0;0;0;0;0;0;0;0.001000000047;0;0;0;0;0;1.34065938;1.326349139;1000;0.0003906488419;1.221433997;1.222239017;0.002000000095;100;0.0008425062988;0;0;0;0.001000000047;1;0;0;0
184.5725;-0.004003158771;0;350;0;-29.0859375;0;0;0;0;2.117604494;-20.48226929;-0.5026962757;4074.22876;15;0;0;0;0;0;0;0;0;0;0;0;0;0;0;0;0.001000000047;0;0;0;0;0;1.342490911;1.328452826;1000;0.0003906488419;1.221433997;1.222239017;0.002000000095;100;0.000843530579;0;0;0;0.001000000047;1;0;0;0
184.57355;-0.004003158771;0;350;0;-29.0859375;0;0;0;0;2.117604494;-20.48226929;-0.5026962757;4074.22876;15;0;0;0;0;0;0;0;0;0;0;0;0;0;0;0;0.001000000047;0;0;0;0;0;1.355921984;1.328251958;1000;0.0003906488419;1.221433997;1.222239017;0.002000000095;100;0.0008435799391;0;0;0;0.001000000047;1;0;0;0
184.57425;-0.004003158771;0;350;0;-29.0859375;0;0;0;0;2.117604494;-20.48226929;-0.5026962757;4074.22876;15;0;0;0;0;0;0;0;0;0;0;0;0;0;0;0;0.001000000047;0;0;0;0;0;1.349206448;1.326907873;1000;0.0003906488419;1.221433997;1.222239017;0.002000000095;100;0.0008447801811;0;0;0;0.001000000047;1;0;0;0
184.5753;-0.004003158771;0;350;0;-29.0859375;0;0;0;0;2.117604494;-20.48226929;-0.5026962757;4074.22876;15;0;0;0;0;0;0;0;0;0;0;0;0;0;0;0;0.001000000047;0;0;0;0;0;1.345543385;1.330256343;1000;0.0003906488419;1.221433997;1.222239017;0.002000000095;100;0.0008482554695;0;0;0;0.001000000047;1;0;0;0
184.57635;-0.004003158771;0;350;0;-29.0859375;0;0;0;0;2.117604494;-20.48226929;-0.5026962757;4074.22876;15;0;0;0;0;0;0;0;0;0;0;0;0;0;0;0;0.001000000047;0;0;0;0;0;1.303418875;1.331284165;1000;0.0003906488419;1.221433997;1.222239017;0.002000000095;100;0.000853081583;0;0;0;0.001000000047;1;0;0;0
184.5774;-0.004003158771;0;350;0;-29.0859375;0;0;0;0;2.117604494;-20.48226929;-0.5026962757;4074.22876;15;0;0;0;0;0;0;0;0;0;0;0;0;0;0;0;0.001000000047;0;0;0;0;0;1.357753396;1.333977222;1000;0.0003906488419;1.221433997;1.222239017;0.002000000095;100;0.0008584970492;0;0;0;0.001000000047;1;0;0;0
184.57845;-0.004003158771;0;350;0;-29.0859375;0;0;0;0;2.117604494;-20.48226929;-0.5026962757;4074.22876;15;0;0;0;0;0;0;0;0;0;0;0;0;0;0;0;0.001000000047;0;0;0;0;0;1.357753396;1.335688949;1000;0.0003906488419;1.221433997;1.222239017;0.002000000095;100;0.0008630259545;0;0;0;0.001000000047;1;0;0;0
184.5795;-0.004003158771;0;350;0;-29.0859375;0;0;0;0;2.117604494;-20.48226929;-0.5026962757;4074.22876;15;0;0;0;0;0;0;0;0;0;0;0;0;0;0;0;0.001000000047;0;0;0;0;0;1.328449368;1.335002422;1000;0.0003906488419;1.221433997;1.222239017;0.002000000095;100;0.0008675322752;0;0;0;0.001000000047;1;0;0;0
184.58055;-0.004003158771;0;350;0;-29.0859375;0;0;0;0;2.117604494;-20.48226929;-0.5026962757;4074.22876;15;0;0;0;0;0;0;0;0;0;0;0;0;0;0;0;0.001000000047;0;0;0;0;0;1.336996436;1.335054517;1000;0.0003906488419;1.221433997;1.222239017;0.002000000095;100;0.0008734201547;0;0;0;0.001000000047;1;0;0;0
184.58125;-0.004003158771;0;350;0;-29.0859375;0;0;0;0;2.117604494;-20.48226929;-0.5026962757;4074.22876;15;0;0;0;0;0;0;0;0;0;0;0;0;0;0;0;0.001000000047;0;0;0;0;0;1.30891335;1.333241701;1000;0.0003906488419;1.221433997;1.222239017;0.002000000095;100;0.000877267099;0;0;0;0.001000000047;1;0;0;0
184.5823;-0.004003158771;0;350;0;-29.0859375;0;0;0;0;2.117604494;-20.48226929;-0.5026962757;4074.22876;15;0;0;0;0;0;0;0;0;0;0;0;0;0;0;0;0.001000000047;0;0;0;0;0;1.327838898;1.333256841;1000;0.0003906488419;1.221433997;1.222239017;0.002000000095;100;0.0008826484554;0;0;0;0.001000000047;1;0;0;0
184.58335;-0.004003158771;0;350;0;-29.0859375;0;0;0;0;2.117604494;-20.48226929;-0.5026962757;4074.22876;15;0;0;0;0;0;0;0;0;0;0;0;0;0;0;0;0.001000000047;0;0;0;0;0;1.299755812;1.332092404;1000;0.0003906488419;1.221433997;1.222239017;0.002000000095;100;0.0008875571657;0;0;0;0.001000000047;1;0;0;0
184.5844;-0.004003158771;0;350;0;-29.0859375;0;0;0;0;2.117604494;-20.48226929;-0.5026962757;4074.22876;15;0;0;0;0;0;0;0;0;0;0;0;0;0;0;0;0.001000000047;0;0;0;0;0;1.337606907;1.332159996;1000;0.0003906488419;1.221433997;1.222239017;0.002000000095;100;0.0008931510383;0;0;0;0.001000000047;1;0;0;0
184.58545;-0.004003158771;0;350;0;-29.0859375;0;0;0;0;2.117604494;-20.48226929;-0.5026962757;4074.22876;15;0;0;0;0;0;0;0;0;0;0;0;0;0;0;0;0.001000000047;0;0;0;0;0;1.235653281;1.328734159;1000;0.0003906488419;1.221433997;1.222239017;0.002000000095;100;0.0008998125559;0;0;0;0.001000000047;1;0;0;0
184.5865;-0.004003158771;0;350;0;-29.0859375;0;0;0;0;2.117604494;-20.48226929;-0.5026962757;4074.22876;15;0;0;0;0;0;0;0;0;0;0;0;0;0;0;0;0.001000000047;0;0;0;0;0;1.322954893;1.326807261;1000;0.0003906488419;1.221433997;1.222239017;0.002000000095;100;0.0009079274023;0;0;0;0.001000000047;1;0;0;0
184.5872;-0.004003158771;0;350;0;-29.0859375;0;0;0;0;2.117604494;-20.48226929;-0.5026962757;4074.22876;15;0;0;0;0;0;0;0;0;0;0;0;0;0;0;0;0.001000000047;0;0;0;0;0;1.337606907;1.327089667;1000;0.0003906488419;1.221433997;1.222239017;0.002000000095;100;0.0009125994402;0;0;0;0.001000000047;1;0;0;0
184.58825;-0.004003158771;0;350;0;-29.0859375;0;0;0;0;2.117604494;-20.48226929;-0.5026962757;4074.22876;15;0;0;0;0;0;0;0;0;0;0;0;0;0;0;0;0.001000000047;0;0;0;0;0;1.330891371;1.325742483;1000;0.0003906488419;1.221433997;1.222239017;0.002000000095;100;0.0009188848198;0;0;0;0.001000000047;1;0;0;0
184.5893;-0.004003158771;0;350;0;-29.0859375;0;0;0;0;2.117604494;-20.48226929;-0.5026962757;4074.22876;15;0;0;0;0;0;0;0;0;0;0;0;0;0;0;0;0.001000000047;0;0;0;0;0;1.311965942;1.325548887;1000;0.0003906488419;1.221433997;1.222239017;0.002000000095;100;0.0009235207108;0;0;0;0.001000000047;1;0;0;0
184.59035;-0.004003158771;0;350;0;-29.0859375;0;0;0;0;2.117604494;-20.48226929;-0.5026962757;4074.22876;15;0;0;0;0;0;0;0;0;0;0;0;0;0;0;0;0.001000000047;0;0;0;0;0;1.31929183;1.323674917;1000;0.0003906488419;1.221433997;1.222239017;0.002000000095;100;0.0009256662452;0;0;0;0.001000000047;1;0;0;0
184.5914;-0.004003158771;0;350;0;-29.0859375;0;0;0;0;2.117604494;-20.48226929;-0.5026962757;4074.22876;15;0;0;0;0;0;0;0;0;0;0;0;0;0;0;0;0.001000000047;0;0;0;0;0;1.315018415;1.324832559;1000;0.0003906488419;1.221433997;1.222239017;0.002000000095;100;0.0009268255671;0;0;0;0.001000000047;1;0;0;0
184.59245;-0.004003158771;0;350;0;-29.0859375;0;0;0;0;2.117604494;-20.48226929;-0.5026962757;4074.22876;15;0;0;0;0;0;0;0;0;0;0;0;0;0;0;0;0.001000000047;0;0;0;0;0;1.349206448;1.327116847;1000;0.0003906488419;1.221433997;1.222239017;0.002000000095;100;0.0009269884904;0;0;0;0.001000000047;1;0;0;0
184.5935;-0.004003158771;0;350;0;-29.0859375;0;0;0;0;2.117604494;-20.48226929;-0.5026962757;4074.22876;15;0;0;0;0;0;0;0;0;0;0;0;0;0;0;0;0.001000000047;0;0;0;0;0;1.285714388;1.326656103;1000;0.0003906488419;1.221433997;1.222239017;0.002000000095;100;0.0009254876059;0;0;0;0.001000000047;1;0;0;0
184.5942;-0.004003158771;0;350;0;-29.0859375;0;0;0;0;2.117604494;-20.48226929;-0.5026962757;4074.22876;15;0;0;0;0;0;0;0;0;0;0;0;0;0;0;0;0.001000000047;0;0;0;0;0;1.360195398;1.327820182;1000;0.0003906488419;1.221433997;1.222239017;0.002000000095;100;0.0009236924234;0;0;0;0.001000000047;1;0;0;0
184.59525;-0.004003158771;0;350;0;-29.0859375;0;0;0;0;2.117604494;-20.48226929;-0.5026962757;4074.22876;15;0;0;0;0;0;0;0;0;0;0;0;0;0;0;0;0.001000000047;0;0;0;0;0;1.346764445;1.329411268;1000;0.0003906488419;1.221433997;1.222239017;0.002000000095;100;0.0009211613215;0;0;0;0.001000000047;1;0;0;0
184.5963;-0.004003158771;0;350;0;-29.0859375;0;0;0;0;2.117604494;-20.48226929;-0.5026962757;4074.22876;15;0;0;0;0;0;0;0;0;0;0;0;0;0;0;0;0.001000000047;0;0;0;0;0;1.31929183;1.32795465;1000;0.0003906488419;1.221433997;1.222239017;0.002000000095;100;0.0009194649174;0;0;0;0.001000000047;1;0;0;0
184.59735;-0.004003158771;0;350;0;-29.0859375;0;0;0;0;2.117604494;-20.48226929;-0.5026962757;4074.22876;15;0;0;0;0;0;0;0;0;0;0;0;0;0;0;0;0.001000000047;0;0;0;0;0;1.236263752;1.324506521;1000;0.0003906488419;1.221433997;1.222239017;0.002000000095;100;0.0009166733944;0;0;0;0.001000000047;1;0;0;0
184.5984;-0.004003158771;0;350;0;-29.0859375;0;0;0;0;2.117604494;-20.48226929;-0.5026962757;4074.22876;15;0;0;0;0;0;0;0;0;0;0;0;0;0;0;0;0.001000000047;0;0;0;0;0;1.31990242;1.325132251;1000;0.0003906488419;1.221433997;1.222239017;0.002000000095;100;0.0009125382639;0;0;0;0.001000000047;1;0;0;0
184.59945;-0.004003158771;0;350;0;-29.0859375;0;0;0;0;2.117604494;-20.48226929;-0.5026962757;4074.22876;15;0;0;0;0;0;0;0;0;0;0;0;0;0;0;0;0.001000000047;0;0;0;0;0;1.296703339;1.324323177;1000;0.0003906488419;1.221433997;1.222239017;0.002000000095;100;0.0009051976376;0;0;0;0.001000000047;1;0;0;0
184.6005;-0.004003158771;0;350;0;-29.0859375;0;0;0;0;2.117604494;-20.48226929;-0.5026962757;4074.22876;15;0;0;0;0;0;0;0;0;0;0;0;0;0;0;0;0.001000000047;0;0;0;0;0;1.317460418;1.323924303;1000;0.0003906488419;1.221433997;1.222239017;0.002000000095;100;0.0008977571269;0;0;0;0.001000000047;1;0;0;0
184.6012;-0.004003158771;0;350;0;-29.0859375;0;0;0;0;2.117604494;-20.48226929;-0.5026962757;4074.22876;15;0;0;0;0;0;0;0;0;0;0;0;0;0;0;0;0.001000000047;0;0;0;0;0;1.328449368;1.32088697;1000;0.0003906488419;1.221433997;1.222239017;0.002000000095;100;0.0008930678014;0;0;0;0.001000000047;1;0;0;0
184.60225;-0.004003158771;0;350;0;-29.0859375;0;0;0;0;2.117604494;-20.48226929;-0.5026962757;4074.22876;15;0;0;0;0;0;0;0;0;0;0;0;0;0;0;0;0.001000000047;0;0;0;0;0;1.315628886;1.321014643;1000;0.0003906488419;1.221433997;1.222239017;0.002000000095;100;0.0008869359153;0;0;0;0.001000000047;1;0;0;0
184.6033;-0.004003158771;0;350;0;-29.0859375;0;0;0;0;2.117604494;-20.48226929;-0.5026962757;4074.22876;15;0;0;0;0;0;0;0;0;0;0;0;0;0;0;0;0.001000000047;0;0;0;0;0;1.300366402;1.318782091;1000;0.0003906488419;1.221433997;1.222239017;0.002000000095;100;0.0008812517626;0;0;0;0.001000000047;1;0;0;0
184.60435;-0.004003158771;0;350;0;-29.0859375;0;0;0;0;2.117604494;-20.48226929;-0.5026962757;4074.22876;15;0;0;0;0;0;0;0;0;0;0;0;0;0;0;0;0.001000000047;0;0;0;0;0;1.325396895;1.319181323;1000;0.0003906488419;1.221433997;1.222239017;0.002000000095;100;0.0008757043397;0;0;0;0.001000000047;1;0;0;0
184.6054;-0.004003158771;0;350;0;-29.0859375;0;0;0;0;2.117604494;-20.48226929;-0.5026962757;4074.22876;15;0;0;0;0;0;0;0;0;0;0;0;0;0;0;0;0.001000000047;0;0;0;0;0;1.294261336;1.319018841;1000;0.0003906488419;1.221433997;1.222239017;0.002000000095;100;0.0008706643712;0;0;0;0.001000000047;1;0;0;0
184.60645;-0.004003158771;0;350;0;-29.0859375;0;0;0;0;2.117604494;-20.48226929;-0.5026962757;4074.22876;15;0;0;0;0;0;0;0;0;0;0;0;0;0;0;0;0.001000000047;0;0;0;0;0;1.351037979;1.320823789;1000;0.0003906488419;1.221433997;1.222239017;0.002000000095;100;0.0008667377988;0;0;0;0.001000000047;1;0;0;0
184.6075;-0.004003158771;0;350;0;-29.0859375;0;0;0;0;2.117604494;-20.48226929;-0.5026962757;4074.22876;15;0;0;0;0;0;0;0;0;0;0;0;0;0;0;0;0.001000000047;0;0;0;0;0;1.346153975;1.321981192;1000;0.0003906488419;1.221433997;1.222239017;0.002000000095;100;0.0008644869085;0;0;0;0.001000000047;1;0;0;0
184.6082;-0.004003158771;0;350;0;-29.0859375;0;0;0;0;2.117604494;-20.48226929;-0.5026962757;4074.22876;15;0;0;0;0;0;0;0;0;0;0;0;0;0;0;0;0.001000000047;0;0;0;0;0;1.338217378;1.321208715;1000;0.0003906488419;1.221433997;1.222239017;0.002000000095;100;0.0008632803219;0;0;0;0.001000000047;1;0;0;0
184.60925;-0.004003158771;0;350;0;-29.0859375;0;0;0;0;2.117604494;-20.48226929;-0.5026962757;4074.22876;15;0;0;0;0;0;0;0;0;0;0;0;0;0;0;0;0.001000000047;0;0;0;0;0;1.333333373;1.320399165;1000;0.0003906488419;1.221433997;1.222239017;0.002000000095;100;0.0008585458272;0;0;0;0.001000000047;1;0;0;0
184.6103;-0.004003158771;0;350;0;-29.0859375;0;0;0;0;2.117604494;-20.48226929;-0.5026962757;4074.22876;15;0;0;0;0;0;0;0;0;0;0;0;0;0;0;0;0.001000000047;0;0;0;0;0;1.322954893;1.318913221;1000;0.0003906488419;1.221433997;1.222239017;0.002000000095;100;0.0008502749843;0;0;0;0.001000000047;1;0;0;0
184.61135;-0.004003158771;0;350;0;-29.0859375;0;0;0;0;2.117604494;-20.48226929;-0.5026962757;4074.22876;15;0;0;0;0;0;0;0;0;0;0;0;0;0;0;0;0.001000000047;0;0;0;0;0;1.317460418;1.320672512;1000;0.0003906488419;1.221433997;1.222239017;0.002000000095;100;0.0008398732753;0;0;0;0.001000000047;1;0;0;0
184.6124;-0.004003158771;0;350;0;-29.0859375;0;0;0;0;2.117604494;-20.48226929;-0.5026962757;4074.22876;15;0;0;0;0;0;0;0;0;0;0;0;0;0;0;0;0.001000000047;0;0;0;0;0;1.306471348;1.321723104;1000;0.0003906488419;1.221433997;1.222239017;0.002000000095;100;0.0008293513674;0;0;0;0.001000000047;1;0;0;0
184.61345;-0.004003158771;0;350;0;-29.0859375;0;0;0;0;2.117604494;-20.48226929;-0.5026962757;4074.22876;15;0;0;0;0;0;0;0;0;0;0;0;0;0;0;0;0.001000000047;0;0;0;0;0;1.291819334;1.32296145;1000;0.0003906488419;1.221433997;1.222239017;0.002000000095;100;0.0008195589762;0;0;0;0.001000000047;1;0;0;0
184.61415;-0.004003158771;0;350;0;-29.0859375;0;0;0;0;2.117604494;-20.48226929;-0.5026962757;4074.22876;15;0;0;0;0;0;0;0;0;0;0;0;0;0;0;0;0.001000000047;0;0;0;0;0;1.37240541;1.325464964;1000;0.0003906488419;1.221433997;1.222239017;0.002000000095;100;0.0008132446092;0;0;0;0.001000000047;1;0;0;0
184.6152;-0.004003158771;0;350;0;-29.0859375;0;0;0;0;2.117604494;-20.48226929;-0.5026962757;4074.22876;15;0;0;0;0;0;0;0;0;0;0;0;0;0;0;0;0.001000000047;0;0;0;0;0;1.377899885;1.328380466;1000;0.0003906488419;1.221433997;1.222239017;0.002000000095;100;0.0008038274245;0;0;0;0.001000000047;1;0;0;0
184.61625;-0.004003158771;0;350;0;-29.0859375;0;0;0;0;2.117604494;-20.48226929;-0.5026962757;4074.22876;15;0;0;0;0;0;0;0;0;0;0;0;0;0;0;0;0.001000000047;0;0;0;0;0;1.377899885;1.328389406;1000;0.0003906488419;1.221433997;1.222239017;0.002000000095;100;0.0007951493608;0;0;0;0.001000000047;1;0;0;0
184.6173;-0.004003158771;0;350;0;-29.0859375;0;0;0;0;2.117604494;-20.48226929;-0.5026962757;4074.22876;15;0;0;0;0;0;0;0;0;0;0;0;0;0;0;0;0.001000000047;0;0;0;0;0;1.353479862;1.329057693;1000;0.0003906488419;1.221433997;1.222239017;0.002000000095;100;0.0007881128695;0;0;0;0.001000000047;1;0;0;0
184.61835;-0.004003158771;0;350;0;-29.0859375;0;0;0;0;2.117604494;-20.48226929;-0.5026962757;4074.22876;15;0;0;0;0;0;0;0;0;0;0;0;0;0;0;0;0.001000000047;0;0;0;0;0;1.300366402;1.329333305;1000;0.0003906488419;1.221433997;1.222239017;0.002000000095;100;0.0007824519416;0;0;0;0.001000000047;1;0;0;0
184.6194;-0.004003158771;0;350;0;-29.0859375;0;0;0;0;2.117604494;-20.48226929;-0.5026962757;4074.22876;15;0;0;0;0;0;0;0;0;0;0;0;0;0;0;0;0.001000000047;0;0;0;0;0;1.344322443;1.330864549;1000;0.0003906488419;1.221433997;1.222239017;0.002000000095;100;0.0007761910092;0;0;0;0.001000000047;1;0;0;0
184.62045;-0.004003158771;0;350;0;-29.0859375;0;0;0;0;2.117604494;-20.48226929;-0.5026962757;4074.22876;15;0;0;0;0;0;0;0;0;0;0;0;0;0;0;0;0.001000000047;0;0;0;0;0;1.239926696;1.328483939;1000;0.0003906488419;1.221433997;1.222239017;0.002000000095;100;0.0007696739631;0;0;0;0.001000000047;1;0;0;0
184.62115;-0.004003158771;0;350;0;-29.0859375;0;0;0;0;2.117604494;-20.48226929;-0.5026962757;4074.22876;15;0;0;0;0;0;0;0;0;0;0;0;0;0;0;0;0.001000000047;0;0;0;0;0;1.343101382;1.328421116;1000;0.0003906488419;1.221433997;1.222239017;0.002000000095;100;0.0007639451069;0;0;0;0.001000000047;1;0;0;0
184.6222;-0.004003158771;0;350;0;-29.0859375;0;0;0;0;2.117604494;-20.48226929;-0.5026962757;4074.22876;15;0;0;0;0;0;0;0;0;0;0;0;0;0;0;0;0.001000000047;0;0;0;0;0;1.347374916;1.325446844;1000;0.0003906488419;1.221433997;1.222239017;0.002000000095;100;0.0007544232067;0;0;0;0.001000000047;1;0;0;0
184.62325;-0.004003158771;0;350;0;-29.0859375;0;0;0;0;2.117604494;-20.48226929;-0.5026962757;4074.22876;15;0;0;0;0;0;0;0;0;0;0;0;0;0;0;0;0.001000000047;0;0;0;0;0;1.335164905;1.323106289;1000;0.0003906488419;1.221433997;1.222239017;0.002000000095;100;0.0007460655761;0;0;0;0.001000000047;1;0;0;0
184.6243;-0.004003158771;0;350;0;-29.0859375;0;0;0;0;2.117604494;-20.48226929;-0.5026962757;4074.22876;15;0;0;0;0;0;0;0;0;0;0;0;0;0;0;0;0.001000000047;0;0;0;0;0;1.314407825;1.323880553;1000;0.0003906488419;1.221433997;1.222239017;0.002000000095;100;0.0007387213409;0;0;0;0.001000000047;1;0;0;0
184.62535;-0.004003158771;0;350;0;-29.0859375;0;0;0;0;2.117604494;-20.48226929;-0.5026962757;4074.22876;15;0;0;0;0;0;0;0;0;0;0;0;0;0;0;0;0.001000000047;0;0;0;0;0;1.286324859;1.323985219;1000;0.0003906488419;1.221433997;1.222239017;0.002000000095;100;0.0007322258316;0;0;0;0.001000000047;1;0;0;0
184.6264;-0.004003158771;0;350;0;-29.0859375;0;0;0;0;2.117604494;-20.48226929;-0.5026962757;4074.22876;15;0;0;0;0;0;0;0;0;0;0;0;0;0;0;0;0.001000000047;0;0;0;0;0;1.294871807;1.323503017;1000;0.0003906488419;1.221433997;1.222239017;0.002000000095;100;0.0007261125138;0;0;0;0.001000000047;1;0;0;0
184.62745;-0.004003158771;0;350;0;-29.0859375;0;0;0;0;2.117604494;-20.48226929;-0.5026962757;4074.22876;15;0;0;0;0;0;0;0;0;0;0;0;0;0;0;0;0.001000000047;0;0;0;0;0;1.333333373;1.324132442;1000;0.0003906488419;1.221433997;1.222239017;0.002000000095;100;0.0007204525173;0;0;0;0.001000000047;1;0;0;0
184.62815;-0.004003158771;0;350;0;-29.0859375;0;0;0;0;2.117604494;-20.48226929;-0.5026962757;4074.22876;15;0;0;0;0;0;0;0;0;0;0;0;0;0;0;0;0.001000000047;0;0;0;0;0;1.338827848;1.324565172;1000;0.0003906488419;1.221433997;1.222239017;0.002000000095;100;0.0007170622121;0;0;0;0.001000000047;1;0;0;0
184.6292;-0.004003158771;0;350;0;-29.0859375;0;0;0;0;2.117604494;-20.48226929;-0.5026962757;4074.22876;15;0;0;0;0;0;0;0;0;0;0;0;0;0;0;0;0.001000000047;0;0;0;0;0;1.343711853;1.324146986;1000;0.0003906488419;1.221433997;1.222239017;0.002000000095;100;0.0007127635763;0;0;0;0.001000000047;1;0;0;0
184.63025;-0.004003158771;0;350;0;-29.0859375;0;0;0;0;2.117604494;-20.48226929;-0.5026962757;4074.22876;15;0;0;0;0;0;0;0;0;0;0;0;0;0;0;0;0.001000000047;0;0;0;0;0;1.35164845;1.323704243;1000;0.0003906488419;1.221433997;1.222239017;0.002000000095;100;0.0007090879953;0;0;0;0.001000000047;1;0;0;0
184.6313;-0.004003158771;0;350;0;-29.0859375;0;0;0;0;2.117604494;-20.48226929;-0.5026962757;4074.22876;15;0;0;0;0;0;0;0;0;0;0;0;0;0;0;0;0.001000000047;0;0;0;0;0;1.344932914;1.325149417;1000;0.0003906488419;1.221433997;1.222239017;0.002000000095;100;0.0007052868023;0;0;0;0.001000000047;1;0;0;0
184.63235;-0.004003158771;0;350;0;-29.0859375;0;0;0;0;2.117604494;-20.48226929;-0.5026962757;4074.22876;15;0;0;0;0;0;0;0;0;0;0;0;0;0;0;0;0.001000000047;0;0;0;0;0;1.320512891;1.32504642;1000;0.0003906488419;1.221433997;1.222239017;0.002000000095;100;0.0007007833337;0;0;0;0.001000000047;1;0;0;0
184.6334;-0.004003158771;0;350;0;-29.0859375;0;0;0;0;2.117604494;-20.48226929;-0.5026962757;4074.22876;15;0;0;0;0;0;0;0;0;0;0;0;0;0;0;0;0.001000000047;0;0;0;0;0;1.250305295;1.322172999;1000;0.0003906488419;1.221433997;1.222239017;0.002000000095;100;0.0006963632186;0;0;0;0.001000000047;1;0;0;0
184.63445;-0.004003158771;0;350;0;-29.0859375;0;0;0;0;2.117604494;-20.48226929;-0.5026962757;4074.22876;15;0;0;0;0;0;0;0;0;0;0;0;0;0;0;0;0.001000000047;0;0;0;0;0;1.348595858;1.325361013;1000;0.0003906488419;1.221433997;1.222239017;0.002000000095;100;0.0006947141956;0;0;0;0.001000000047;1;0;0;0
184.63515;-0.004003158771;0;350;0;-29.0859375;0;0;0;0;2.117604494;-20.48226929;-0.5026962757;4074.22876;15;0;0;0;0;0;0;0;0;0;0;0;0;0;0;0;0.001000000047;0;0;0;0;0;1.36202693;1.327495456;1000;0.0003906488419;1.221433997;1.222239017;0.002000000095;100;0.0006947030779;0;0;0;0.001000000047;1;0;0;0
184.6362;-0.004003158771;0;350;0;-29.0859375;0;0;0;0;2.117604494;-20.48226929;-0.5026962757;4074.22876;15;0;0;0;0;0;0;0;0;0;0;0;0;0;0;0;0.001000000047;0;0;0;0;0;1.369963408;1.326942921;1000;0.0003906488419;1.221433997;1.222239017;0.002000000095;100;0.0006949186791;0;0;0;0.001000000047;1;0;0;0
184.63725;-0.004003158771;0;350;0;-29.0859375;0;0;0;0;2.117604494;-20.48226929;-0.5026962757;4074.22876;15;0;0;0;0;0;0;0;0;0;0;0;0;0;0;0;0.001000000047;0;0;0;0;0;1.362637401;1.328085423;1000;0.0003906488419;1.221433997;1.222239017;0.002000000095;100;0.0006950742099;0;0;0;0.001000000047;1;0;0;0
184.6383;-0.004003158771;0;350;0;-29.0859375;0;0;0;0;2.117604494;-20.48226929;-0.5026962757;4074.22876;15;0;0;0;0;0;0;0;0;0;0;0;0;0;0;0;0.001000000047;0;0;0;0;0;1.335775375;1.328109741;1000;0.0003906488419;1.221433997;1.222239017;0.002000000095;100;0.0006957222358;0;0;0;0.001000000047;1;0;0;0
184.63935;-0.004003158771;0;350;0;-29.0859375;0;0;0;0;2.117604494;-20.48226929;-0.5026962757;4074.22876;15;0;0;0;0;0;0;0;0;0;0;0;0;0;0;0;0.001000000047;0;0;0;0;0;1.322344422;1.329028249;1000;0.0003906488419;1.221433997;1.222239017;0.002000000095;100;0.0006967612426;0;0;0;0.001000000047;1;0;0;0
184.6404;-0.004003158771;0;350;0;-29.0859375;0;0;0;0;2.117604494;-20.48226929;-0.5026962757;4074.22876;15;0;0;0;0;0;0;0;0;0;0;0;0;0;0;0;0.001000000047;0;0;0;0;0;1.284493327;1.327746391;1000;0.0003906488419;1.221433997;1.222239017;0.002000000095;100;0.0006982848863;0;0;0;0.001000000047;1;0;0;0
184.6411;-0.004003158771;0;350;0;-29.0859375;0;0;0;0;2.117604494;-20.48226929;-0.5026962757;4074.22876;15;0;0;0;0;0;0;0;0;0;0;0;0;0;0;0;0.001000000047;0;0;0;0;0;1.329670429;1.327886105;1000;0.0003906488419;1.221433997;1.222239017;0.002000000095;100;0.0006991364644;0;0;0;0.001000000047;1;0;0;0
184.64215;-0.004003158771;0;350;0;-29.0859375;0;0;0;0;2.117604494;-20.48226929;-0.5026962757;4074.22876;15;0;0;0;0;0;0;0;0;0;0;0;0;0;0;0;0.001000000047;0;0;0;0;0;1.333333373;1.32742393;1000;0.0003906488419;1.221433997;1.222239017;0.002000000095;100;0.0006993546849;0;0;0;0.001000000047;1;0;0;0
184.6432;-0.004003158771;0;350;0;-29.0859375;0;0;0;0;2.117604494;-20.48226929;-0.5026962757;4074.22876;15;0;0;0;0;0;0;0;0;0;0;0;0;0;0;0;0.001000000047;0;0;0;0;0;1.333943844;1.327758312;1000;0.0003906488419;1.221433997;1.222239017;0.002000000095;100;0.0006986010703;0;0;0;0.001000000047;1;0;0;0
184.64425;-0.004003158771;0;350;0;-29.0859375;0;0;0;0;2.117604494;-20.48226929;-0.5026962757;4074.22876;15;0;0;0;0;0;0;0;0;0;0;0;0;0;0;0;0.001000000047;0;0;0;0;0;1.330891371;1.327162743;1000;0.0003906488419;1.221433997;1.222239017;0.002000000095;100;0.0006989429239;0;0;0;0.001000000047;1;0;0;0
184.6453;-0.004003158771;0;350;0;-29.0859375;0;0;0;0;2.117604494;-20.48226929;-0.5026962757;4074.22876;15;0;0;0;0;0;0;0;0;0;0;0;0;0;0;0;0.001000000047;0;0;0;0;0;1.317460418;1.323446155;1000;0.0003906488419;1.221433997;1.222239017;0.002000000095;100;0.0007010214613;0;0;0;0.001000000047;1;0;0;0
184.64635;-0.004003158771;0;350;0;-29.0859375;0;0;0;0;2.117604494;-20.48226929;-0.5026962757;4074.22876;15;0;0;0;0;0;0;0;0;0;0;0;0;0;0;0;0.001000000047;0;0;0;0;0;1.301587343;1.320881963;1000;0.0003906488419;1.221433997;1.222239017;0.002000000095;100;0.0007037159521;0;0;0;0.001000000047;1;0;0;0
184.6474;-0.004003158771;0;350;0;-29.0859375;0;0;0;0;2.117604494;-20.48226929;-0.5026962757;4074.22876;15;0;0;0;0;0;0;0;0;0;0;0;0;0;0;0;0.001000000047;0;0;0;0;0;1.325396895;1.321141362;1000;0.0003906488419;1.221433997;1.222239017;0.002000000095;100;0.0007057167822;0;0;0;0.001000000047;1;0;0;0
184.6481;-0.004003158771;0;350;0;-29.0859375;0;0;0;0;2.117604494;-20.48226929;-0.5026962757;4074.22876;15;0;0;0;0;0;0;0;0;0;0;0;0;0;0;0;0.001000000047;0;0;0;0;0;1.316849947;1.321400046;1000;0.0003906488419;1.221433997;1.222239017;0.002000000095;100;0.0007065196405;0;0;0;0.001000000047;1;0;0;0
184.64915;-0.004003158771;0;350;0;-29.0859375;0;0;0;0;2.117604494;-20.48226929;-0.5026962757;4074.22876;15;0;0;0;0;0;0;0;0;0;0;0;0;0;0;0;0.001000000047;0;0;0;0;0;1.329059839;1.320873022;1000;0.0003906488419;1.221433997;1.222239017;0.002000000095;100;0.0007070826832;0;0;0;0.001000000047;1;0;0;0
184.6502;-0.004003158771;0;350;0;-29.0859375;0;0;0;0;2.117604494;-20.48226929;-0.5026962757;4074.22876;15;0;0;0;0;0;0;0;0;0;0;0;0;0;0;0;0.001000000047;0;0;0;0;0;1.344322443;1.319062114;1000;0.0003906488419;1.221433997;1.222239017;0.002000000095;100;0.0007080508512;0;0;0;0.001000000047;1;0;0;0
184.65125;-0.004003158771;0;350;0;-29.0859375;0;0;0;0;2.117604494;-20.48226929;-0.5026962757;4074.22876;15;0;0;0;0;0;0;0;0;0;0;0;0;0;0;0;0.001000000047;0;0;0;0;0;1.353479862;1.321126819;1000;0.0003906488419;1.221433997;1.222239017;0.002000000095;100;0.0007095553447;0;0;0;0.001000000047;1;0;0;0
184.6523;-0.004003158771;0;350;0;-29.0859375;0;0;0;0;2.117604494;-20.48226929;-0.5026962757;4074.22876;15;0;0;0;0;0;0;0;0;0;0;0;0;0;0;0;0.001000000047;0;0;0;0;0;1.352869391;1.321750641;1000;0.0003906488419;1.221433997;1.222239017;0.002000000095;100;0.0007082445081;0;0;0;0.001000000047;1;0;0;0
184.65335;-0.004003158771;0;350;0;-29.0859375;0;0;0;0;2.117604494;-20.48226929;-0.5026962757;4074.22876;15;0;0;0;0;0;0;0;0;0;0;0;0;0;0;0;0.001000000047;0;0;0;0;0;1.346764445;1.323783755;1000;0.0003906488419;1.221433997;1.222239017;0.002000000095;100;0.0007051581051;0;0;0;0.001000000047;1;0;0;0
184.6544;-0.004003158771;0;350;0;-29.0859375;0;0;0;0;2.117604494;-20.48226929;-0.5026962757;4074.22876;15;0;0;0;0;0;0;0;0;0;0;0;0;0;0;0;0.001000000047;0;0;0;0;0;1.351037979;1.326415062;1000;0.0003906488419;1.221433997;1.222239017;0.002000000095;100;0.0007031901041;0;0;0;0.001000000047;1;0;0;0
184.6551;-0.004003158771;0;350;0;-29.0859375;0;0;0;0;2.117604494;-20.48226929;-0.5026962757;4074.22876;15;0;0;0;0;0;0;0;0;0;0;0;0;0;0;0;0.001000000047;0;0;0;0;0;1.349206448;1.3285079;1000;0.0003906488419;1.221433997;1.222239017;0.002000000095;100;0.0007025133818;0;0;0;0.001000000047;1;0;0;0
184.65615;-0.004003158771;0;350;0;-29.0859375;0;0;0;0;2.117604494;-20.48226929;-0.5026962757;4074.22876;15;0;0;0;0;0;0;0;0;0;0;0;0;0;0;0;0.001000000047;0;0;0;0;0;1.355921984;1.327864528;1000;0.0003906488419;1.221433997;1.222239017;0.002000000095;100;0.0007030750858;0;0;0;0.001000000047;1;0;0;0
184.6572;-0.004003158771;0;350;0;-29.0859375;0;0;0;0;2.117604494;-20.48226929;-0.5026962757;4074.22876;15;0;0;0;0;0;0;0;0;0;0;0;0;0;0;0;0.001000000047;0;0;0;0;0;1.359584928;1.327701569;1000;0.0003906488419;1.221433997;1.222239017;0.002000000095;100;0.0007058531628;0;0;0;0.001000000047;1;0;0;0
184.65825;-0.004003158771;0;350;0;-29.0859375;0;0;0;0;2.117604494;-20.48226929;-0.5026962757;4074.22876;15;0;0;0;0;0;0;0;0;0;0;0;0;0;0;0;0.001000000047;0;0;0;0;0;1.350427389;1.328815222;1000;0.0003906488419;1.221433997;1.222239017;0.002000000095;100;0.0007081418298;0;0;0;0.001000000047;1;0;0;0
184.6593;-0.004003158771;0;350;0;-29.0859375;0;0;0;0;2.117604494;-20.48226929;-0.5026962757;4074.22876;15;0;0;0;0;0;0;0;0;0;0;0;0;0;0;0;0.001000000047;0;0;0;0;0;1.329670429;1.32787776;1000;0.0003906488419;1.221433997;1.222239017;0.002000000095;100;0.0007104346878;0;0;0;0.001000000047;1;0;0;0
184.66035;-0.004003158771;0;350;0;-29.0859375;0;0;0;0;2.117604494;-20.48226929;-0.5026962757;4074.22876;15;0;0;0;0;0;0;0;0;0;0;0;0;0;0;0;0.001000000047;0;0;0;0;0;1.29853487;1.327480793;1000;0.0003906488419;1.221433997;1.222239017;0.002000000095;100;0.0007134100306;0;0;0;0.001000000047;1;0;0;0
184.6614;-0.004003158771;0;350;0;-29.0859375;0;0;0;0;2.117604494;-20.48226929;-0.5026962757;4074.22876;15;0;0;0;0;0;0;0;0;0;0;0;0;0;0;0;0.001000000047;0;0;0;0;0;1.280219793;1.32457006;1000;0.0003906488419;1.221433997;1.222239017;0.002000000095;100;0.0007159999805;0;0;0;0.001000000047;1;0;0;0
184.6621;-0.004003158771;0;350;0;-29.0859375;0;0;0;0;2.117604494;-20.48226929;-0.5026962757;4074.22876;15;0;0;0;0;0;0;0;0;0;0;0;0;0;0;0;0.001000000047;0;0;0;0;0;1.31990242;1.324691892;1000;0.0003906488419;1.221433997;1.222239017;0.002000000095;100;0.0007179003442;0;0;0;0.001000000047;1;0;0;0
184.66315;-0.004003158771;0;350;0;-29.0859375;0;0;0;0;2.117604494;-20.48226929;-0.5026962757;4074.22876;15;0;0;0;0;0;0;0;0;0;0;0;0;0;0;0;0.001000000047;0;0;0;0;0;1.324786425;1.322214603;1000;0.0003906488419;1.221433997;1.222239017;0.002000000095;100;0.000720504846;0;0;0;0.001000000047;1;0;0;0
184.6642;-0.004003158771;0;350;0;-29.0859375;0;0;0;0;2.117604494;-20.48226929;-0.5026962757;4074.22876;15;0;0;0;0;0;0;0;0;0;0;0;0;0;0;0;0.001000000047;0;0;0;0;0;1.330891371;1.318804264;1000;0.0003906488419;1.221433997;1.222239017;0.002000000095;100;0.0007227728493;0;0;0;0.001000000047;1;0;0;0
184.66525;-0.004003158771;0;350;0;-29.0859375;0;0;0;0;2.117604494;-20.48226929;-0.5026962757;4074.22876;15;0;0;0;0;0;0;0;0;0;0;0;0;0;0;0;0.001000000047;0;0;0;0;0;1.333943844;1.315643549;1000;0.0003906488419;1.221433997;1.222239017;0.002000000095;100;0.0007242122083;0;0;0;0.001000000047;1;0;0;0
184.6663;-0.004003158771;0;350;0;-29.0859375;0;0;0;0;2.117604494;-20.48226929;-0.5026962757;4074.22876;15;0;0;0;0;0;0;0;0;0;0;0;0;0;0;0;0.001000000047;0;0;0;0;0;1.326007366;1.313635111;1000;0.0003906488419;1.221433997;1.222239017;0.002000000095;100;0.0007249595947;0;0;0;0.001000000047;1;0;0;0
184.66735;-0.004003158771;0;350;0;-29.0859375;0;0;0;0;2.117604494;-20.48226929;-0.5026962757;4074.22876;15;0;0;0;0;0;0;0;0;0;0;0;0;0;0;0;0.001000000047;0;0;0;0;0;1.314407825;1.312505126;1000;0.0003906488419;1.221433997;1.222239017;0.002000000095;100;0.0007263498264;0;0;0;0.001000000047;1;0;0;0
184.66805;-0.004003158771;0;350;0;-29.0859375;0;0;0;0;2.117604494;-20.48226929;-0.5026962757;4074.22876;15;0;0;0;0;0;0;0;0;0;0;0;0;0;0;0;0.001000000047;0;0;0;0;0;1.287545919;1.312370777;1000;0.0003906488419;1.221433997;1.222239017;0.002000000095;100;0.0007271069917;0;0;0;0.001000000047;1;0;0;0
184.6691;-0.004003158771;0;350;0;-29.0859375;0;0;0;0;2.117604494;-20.48226929;-0.5026962757;4074.22876;15;0;0;0;0;0;0;0;0;0;0;0;0;0;0;0;0.001000000047;0;0;0;0;0;1.315628886;1.312859774;1000;0.0003906488419;1.221433997;1.222239017;0.002000000095;100;0.0007268937188;0;0;0;0.001000000047;1;0;0;0
184.67015;-0.004003158771;0;350;0;-29.0859375;0;0;0;0;2.117604494;-20.48226929;-0.5026962757;4074.22876;15;0;0;0;0;0;0;0;0;0;0;0;0;0;0;0;0.001000000047;0;0;0;0;0;1.332112432;1.313501358;1000;0.0003906488419;1.221433997;1.222239017;0.002000000095;100;0.0007250164635;0;0;0;0.001000000047;1;0;0;0
184.6712;-0.004003158771;0;350;0;-29.0859375;0;0;0;0;2.117604494;-20.48226929;-0.5026962757;4074.22876;15;0;0;0;0;0;0;0;0;0;0;0;0;0;0;0;0.001000000047;0;0;0;0;0;1.344322443;1.315863729;1000;0.0003906488419;1.221433997;1.222239017;0.002000000095;100;0.0007224060828;0;0;0;0.001000000047;1;0;0;0
184.67225;-0.004003158771;0;350;0;-29.0859375;0;0;0;0;2.117604494;-20.48226929;-0.5026962757;4074.22876;15;0;0;0;0;0;0;0;0;0;0;0;0;0;0;0;0.001000000047;0;0;0;0;0;1.357142925;1.316671133;1000;0.0003906488419;1.221433997;1.222239017;0.002000000095;100;0.0007198033272;0;0;0;0.001000000047;1;0;0;0
184.6733;-0.004003158771;0;350;0;-29.0859375;0;0;0;0;2.117604494;-20.48226929;-0.5026962757;4074.22876;15;0;0;0;0;0;0;0;0;0;0;0;0;0;0;0;0.001000000047;0;0;0;0;0;1.36202693;1.315617561;1000;0.0003906488419;1.221433997;1.222239017;0.002000000095;100;0.000716915587;0;0;0;0.001000000047;1;0;0;0
184.67435;-0.004003158771;0;350;0;-29.0859375;0;0;0;0;2.117604494;-20.48226929;-0.5026962757;4074.22876;15;0;0;0;0;0;0;0;0;0;0;0;0;0;0;0;0.001000000047;0;0;0;0;0;1.355311394;1.319077253;1000;0.0003906488419;1.221433997;1.222239017;0.002000000095;100;0.0007137642824;0;0;0;0.001000000047;1;0;0;0
184.67505;-0.004003158771;0;350;0;-29.0859375;0;0;0;0;2.117604494;-20.48226929;-0.5026962757;4074.22876;15;0;0;0;0;0;0;0;0;0;0;0;0;0;0;0;0.001000000047;0;0;0;0;0;1.360805988;1.321718574;1000;0.0003906488419;1.221433997;1.222239017;0.002000000095;100;0.0007117141504;0;0;0;0.001000000047;1;0;0;0
184.6761;-0.004003158771;0;350;0;-29.0859375;0;0;0;0;2.117604494;-20.48226929;-0.5026962757;4074.22876;15;0;0;0;0;0;0;0;0;0;0;0;0;0;0;0;0.001000000047;0;0;0;0;0;1.303418875;1.322696805;1000;0.0003906488419;1.221433997;1.222239017;0.002000000095;100;0.000709466578;0;0;0;0.001000000047;1;0;0;0
184.67715;-0.004003158771;0;350;0;-29.0859375;0;0;0;0;2.117604494;-20.48226929;-0.5026962757;4074.22876;15;0;0;0;0;0;0;0;0;0;0;0;0;0;0;0;0.001000000047;0;0;0;0;0;1.346153975;1.323210835;1000;0.0003906488419;1.221433997;1.222239017;0.002000000095;100;0.0007090743165;0;0;0;0.001000000047;1;0;0;0
184.6782;-0.004003158771;0;350;0;-29.0859375;0;0;0;0;2.117604494;-20.48226929;-0.5026962757;4074.22876;15;0;0;0;0;0;0;0;0;0;0;0;0;0;0;0;0.001000000047;0;0;0;0;0;1.347985387;1.323960662;1000;0.0003906488419;1.221433997;1.222239017;0.002000000095;100;0.0007104155375;0;0;0;0.001000000047;1;0;0;0
184.67925;-0.004003158771;0;350;0;-29.0859375;0;0;0;0;2.117604494;-20.48226929;-0.5026962757;4074.22876;15;0;0;0;0;0;0;0;0;0;0;0;0;0;0;0;0.001000000047;0;0;0;0;0;1.339438438;1.325036049;1000;0.0003906488419;1.221433997;1.222239017;0.002000000095;100;0.000712290348;0;0;0;0.001000000047;1;0;0;0
184.6803;-0.004003158771;0;350;0;-29.0859375;0;0;0;0;2.117604494;-20.48226929;-0.5026962757;4074.22876;15;0;0;0;0;0;0;0;0;0;0;0;0;0;0;0;0.001000000047;0;0;0;0;0;1.327228427;1.32207942;1000;0.0003906488419;1.221433997;1.222239017;0.002000000095;100;0.0007143709809;0;0;0;0.001000000047;1;0;0;0
184.68135;-0.004003158771;0;350;0;-29.0859375;0;0;0;0;2.117604494;-20.48226929;-0.5026962757;4074.22876;15;0;0;0;0;0;0;0;0;0;0;0;0;0;0;0;0.001000000047;0;0;0;0;0;1.306471348;1.320198178;1000;0.0003906488419;1.221433997;1.222239017;0.002000000095;100;0.0007187274168;0;0;0;0.001000000047;1;0;0;0
184.68205;-0.004003158771;0;350;0;-29.0859375;0;0;0;0;2.117604494;-20.48226929;-0.5026962757;4074.22876;15;0;0;0;0;0;0;0;0;0;0;0;0;0;0;0;0.001000000047;0;0;0;0;0;1.331501961;1.320889592;1000;0.0003906488419;1.221433997;1.222239017;0.002000000095;100;0.0007225046866;0;0;0;0.001000000047;1;0;0;0
184.6831;-0.004003158771;0;350;0;-29.0859375;0;0;0;0;2.117604494;-20.48226929;-0.5026962757;4074.22876;15;0;0;0;0;0;0;0;0;0;0;0;0;0;0;0;0.001000000047;0;0;0;0;0;1.309523821;1.320531487;1000;0.0003906488419;1.221433997;1.222239017;0.002000000095;100;0.0007287681219;0;0;0;0.001000000047;1;0;0;0
184.68415;-0.004003158771;0;350;0;-29.0859375;0;0;0;0;2.117604494;-20.48226929;-0.5026962757;4074.22876;15;0;0;0;0;0;0;0;0;0;0;0;0;0;0;0;0.001000000047;0;0;0;0;0;1.318681359;1.319288969;1000;0.0003906488419;1.221433997;1.222239017;0.002000000095;100;0.000735426147;0;0;0;0.001000000047;1;0;0;0
184.6852;-0.004003158771;0;350;0;-29.0859375;0;0;0;0;2.117604494;-20.48226929;-0.5026962757;4074.22876;15;0;0;0;0;0;0;0;0;0;0;0;0;0;0;0;0.001000000047;0;0;0;0;0;1.325396895;1.319383502;1000;0.0003906488419;1.221433997;1.222239017;0.002000000095;100;0.0007398987655;0;0;0;0.001000000047;1;0;0;0
184.68625;-0.004003158771;0;350;0;-29.0859375;0;0;0;0;2.117604494;-20.48226929;-0.5026962757;4074.22876;15;0;0;0;0;0;0;0;0;0;0;0;0;0;0;0;0.001000000047;0;0;0;0;0;1.333333373;1.317319632;1000;0.0003906488419;1.221433997;1.222239017;0.002000000095;100;0.000741396856;0;0;0;0.001000000047;1;0;0;0
184.6873;-0.004003158771;0;350;0;-29.0859375;0;0;0;0;2.117604494;-20.48226929;-0.5026962757;4074.22876;15;0;0;0;0;0;0;0;0;0;0;0;0;0;0;0;0.001000000047;0;0;0;0;0;1.331501961;1.311875343;1000;0.0003906488419;1.221433997;1.222239017;0.002000000095;100;0.0007438923931;0;0;0;0.001000000047;1;0;0;0
184.68835;-0.004003158771;0;350;0;-29.0859375;0;0;0;0;2.117604494;-20.48226929;-0.5026962757;4074.22876;15;0;0;0;0;0;0;0;0;0;0;0;0;0;0;0;0.001000000047;0;0;0;0;0;1.324786425;1.311549783;1000;0.0003906488419;1.221433997;1.222239017;0.002000000095;100;0.0007472251309;0;0;0;0.001000000047;1;0;0;0
184.68905;-0.004003158771;0;350;0;-29.0859375;0;0;0;0;2.117604494;-20.48226929;-0.5026962757;4074.22876;15;0;0;0;0;0;0;0;0;0;0;0;0;0;0;0;0.001000000047;0;0;0;0;0;1.290598392;1.31142211;1000;0.0003906488419;1.221433997;1.222239017;0.002000000095;100;0.000748862687;0;0;0;0.001000000047;1;0;0;0
184.6901;-0.004003158771;0;350;0;-29.0859375;0;0;0;0;2.117604494;-20.48226929;-0.5026962757;4074.22876;15;0;0;0;0;0;0;0;0;0;0;0;0;0;0;0;0.001000000047;0;0;0;0;0;1.25579977;1.310564876;1000;0.0003906488419;1.221433997;1.222239017;0.002000000095;100;0.0007498695632;0;0;0;0.001000000047;1;0;0;0
184.69115;-0.004003158771;0;350;0;-29.0859375;0;0;0;0;2.117604494;-20.48226929;-0.5026962757;4074.22876;15;0;0;0;0;0;0;0;0;0;0;0;0;0;0;0;0.001000000047;0;0;0;0;0;1.329059839;1.311570406;1000;0.0003906488419;1.221433997;1.222239017;0.002000000095;100;0.000748966122;0;0;0;0.001000000047;1;0;0;0
184.6922;-0.004003158771;0;350;0;-29.0859375;0;0;0;0;2.117604494;-20.48226929;-0.5026962757;4074.22876;15;0;0;0;0;0;0;0;0;0;0;0;0;0;0;0;0.001000000047;0;0;0;0;0;1.344932914;1.312910914;1000;0.0003906488419;1.221433997;1.222239017;0.002000000095;100;0.0007469738484;0;0;0;0.001000000047;1;0;0;0
184.69325;-0.004003158771;0;350;0;-29.0859375;0;0;0;0;2.117604494;-20.48226929;-0.5026962757;4074.22876;15;0;0;0;0;0;0;0;0;0;0;0;0;0;0;0;0.001000000047;0;0;0;0;0;1.360195398;1.31385529;1000;0.0003906488419;1.221433997;1.222239017;0.002000000095;100;0.0007453326252;0;0;0;0.001000000047;1;0;0;0
184.6943;-0.004003158771;0;350;0;-29.0859375;0;0;0;0;2.117604494;-20.48226929;-0.5026962757;4074.22876;15;0;0;0;0;0;0;0;0;0;0;0;0;0;0;0;0.001000000047;0;0;0;0;0;1.364468932;1.315526247;1000;0.0003906488419;1.221433997;1.222239017;0.002000000095;100;0.0007437839522;0;0;0;0.001000000047;1;0;0;0
184.695;-0.004003158771;0;350;0;-29.0859375;0;0;0;0;2.117604494;-20.48226929;-0.5026962757;4074.22876;15;0;0;0;0;0;0;0;0;0;0;0;0;0;0;0;0.001000000047;0;0;0;0;0;1.240537286;1.313984036;1000;0.0003906488419;1.221433997;1.222239017;0.002000000095;100;0.0007423583884;0;0;0;0.001000000047;1;0;0;0
184.69605;-0.004003158771;0;350;0;-29.0859375;0;0;0;0;2.117604494;-20.48226929;-0.5026962757;4074.22876;15;0;0;0;0;0;0;0;0;0;0;0;0;0;0;0;0.001000000047;0;0;0;0;0;1.317460418;1.316960692;1000;0.0003906488419;1.221433997;1.222239017;0.002000000095;100;0.0007406788063;0;0;0;0.001000000047;1;0;0;0
184.6971;-0.004003158771;0;350;0;-29.0859375;0;0;0;0;2.117604494;-20.48226929;-0.5026962757;4074.22876;15;0;0;0;0;0;0;0;0;0;0;0;0;0;0;0;0.001000000047;0;0;0;0;0;1.360805988;1.320276856;1000;0.0003906488419;1.221433997;1.222239017;0.002000000095;100;0.0007389334496;0;0;0;0.001000000047;1;0;0;0
184.69815;-0.004003158771;0;350;0;-29.0859375;0;0;0;0;2.117604494;-20.48226929;-0.5026962757;4074.22876;15;0;0;0;0;0;0;0;0;0;0;0;0;0;0;0;0.001000000047;0;0;0;0;0;1.326007366;1.318526864;1000;0.0003906488419;1.221433997;1.222239017;0.002000000095;100;0.0007377735456;0;0;0;0.001000000047;1;0;0;0
184.6992;-0.004003158771;0;350;0;-29.0859375;0;0;0;0;2.117604494;-20.48226929;-0.5026962757;4074.22876;15;0;0;0;0;0;0;0;0;0;0;0;0;0;0;0;0.001000000047;0;0;0;0;0;1.336385965;1.318510771;1000;0.0003906488419;1.221433997;1.222239017;0.002000000095;100;0.0007375460118;0;0;0;0.001000000047;1;0;0;0
184.70025;-0.004003158771;0;350;0;-29.0859375;0;0;0;0;2.117604494;-20.48226929;-0.5026962757;4074.22876;15;0;0;0;0;0;0;0;0;0;0;0;0;0;0;0;0.001000000047;0;0;0;0;0;1.335775375;1.31864953;1000;0.0003906488419;1.221433997;1.222239017;0.002000000095;100;0.0007377538132;0;0;0;0.001000000047;1;0;0;0
184.7013;-0.004003158771;0;350;0;-29.0859375;0;0;0;0;2.117604494;-20.48226929;-0.5026962757;4074.22876;15;0;0;0;0;0;0;0;0;0;0;0;0;0;0;0;0.001000000047;0;0;0;0;0;1.329059839;1.314364076;1000;0.0003906488419;1.221433997;1.222239017;0.002000000095;100;0.0007385273348;0;0;0;0.001000000047;1;0;0;0
184.702;-0.004003158771;0;350;0;-29.0859375;0;0;0;0;2.117604494;-20.48226929;-0.5026962757;4074.22876;15;0;0;0;0;0;0;0;0;0;0;0;0;0;0;0;0.001000000047;0;0;0;0;0;1.289377332;1.313680768;1000;0.0003906488419;1.221433997;1.222239017;0.002000000095;100;0.0007395960856;0;0;0;0.001000000047;1;0;0;0
184.70305;-0.004003158771;0;350;0;-29.0859375;0;0;0;0;2.117604494;-20.48226929;-0.5026962757;4074.22876;15;0;0;0;0;0;0;0;0;0;0;0;0;0;0;0;0.001000000047;0;0;0;0;0;1.230158687;1.311376214;1000;0.0003906488419;1.221433997;1.222239017;0.002000000095;100;0.0007421951159;0;0;0;0.001000000047;1;0;0;0
184.7041;-0.004003158771;0;350;0;-29.0859375;0;0;0;0;2.117604494;-20.48226929;-0.5026962757;4074.22876;15;0;0;0;0;0;0;0;0;0;0;0;0;0;0;0;0.001000000047;0;0;0;0;0;1.332722902;1.312052131;1000;0.0003906488419;1.221433997;1.222239017;0.002000000095;100;0.0007473578444;0;0;0;0.001000000047;1;0;0;0
184.70515;-0.004003158771;0;350;0;-29.0859375;0;0;0;0;2.117604494;-20.48226929;-0.5026962757;4074.22876;15;0;0;0;0;0;0;0;0;0;0;0;0;0;0;0;0.001000000047;0;0;0;0;0;1.315018415;1.311627865;1000;0.0003906488419;1.221433997;1.222239017;0.002000000095;100;0.0007539241924;0;0;0;0.001000000047;1;0;0;0
184.7062;-0.004003158771;0;350;0;-29.0859375;0;0;0;0;2.117604494;-20.48226929;-0.5026962757;4074.22876;15;0;0;0;0;0;0;0;0;0;0;0;0;0;0;0;0.001000000047;0;0;0;0;0;1.324786425;1.310884714;1000;0.0003906488419;1.221433997;1.222239017;0.002000000095;100;0.0007602953701;0;0;0;0.001000000047;1;0;0;0
184.70725;-0.004003158771;0;350;0;-29.0859375;0;0;0;0;2.117604494;-20.48226929;-0.5026962757;4074.22876;15;0;0;0;0;0;0;0;0;0;0;0;0;0;0;0;0.001000000047;0;0;0;0;0;1.328449368;1.30941081;1000;0.0003906488419;1.221433997;1.222239017;0.002000000095;100;0.0007663931465;0;0;0;0.001000000047;1;0;0;0
184.7083;-0.004003158771;0;350;0;-29.0859375;0;0;0;0;2.117604494;-20.48226929;-0.5026962757;4074.22876;15;0;0;0;0;0;0;0;0;0;0;0;0;0;0;0;0.001000000047;0;0;0;0;0;1.3302809;1.310665131;1000;0.0003906488419;1.221433997;1.222239017;0.002000000095;100;0.0007726114709;0;0;0;0.001000000047;1;0;0;0
184.709;-0.004003158771;0;350;0;-29.0859375;0;0;0;0;2.117604494;-20.48226929;-0.5026962757;4074.22876;15;0;0;0;0;0;0;0;0;0;0;0;0;0;0;0;0.001000000047;0;0;0;0;0;1.278998852;1.309580803;1000;0.0003906488419;1.221433997;1.222239017;0.002000000095;100;0.0007768022479;0;0;0;0.001000000047;1;0;0;0
184.71005;-0.004003158771;0;350;0;-29.0859375;0;0;0;0;2.117604494;-20.48226929;-0.5026962757;4074.22876;15;0;0;0;0;0;0;0;0;0;0;0;0;0;0;0;0.001000000047;0;0;0;0;0;1.307081938;1.310717583;1000;0.0003906488419;1.221433997;1.222239017;0.002000000095;100;0.0007824075292;0;0;0;0.001000000047;1;0;0;0
184.7111;-0.004003158771;0;350;0;-29.0859375;0;0;0;0;2.117604494;-20.48226929;-0.5026962757;4074.22876;15;0;0;0;0;0;0;0;0;0;0;0;0;0;0;0;0.001000000047;0;0;0;0;0;1.331501961;1.313005567;1000;0.0003906488419;1.221433997;1.222239017;0.002000000095;100;0.0007866509259;0;0;0;0.001000000047;1;0;0;0
184.71215;-0.004003158771;0;350;0;-29.0859375;0;0;0;0;2.117604494;-20.48226929;-0.5026962757;4074.22876;15;0;0;0;0;0;0;0;0;0;0;0;0;0;0;0;0.001000000047;0;0;0;0;0;1.281440854;1.312941313;1000;0.0003906488419;1.221433997;1.222239017;0.002000000095;100;0.0007888660766;0;0;0;0.001000000047;1;0;0;0
184.7132;-0.004003158771;0;350;0;-29.0859375;0;0;0;0;2.117604494;-20.48226929;-0.5026962757;4074.22876;15;0;0;0;0;0;0;0;0;0;0;0;0;0;0;0;0.001000000047;0;0;0;0;0;1.343101382;1.314180613;1000;0.0003906488419;1.221433997;1.222239017;0.002000000095;100;0.000789370155;0;0;0;0.001000000047;1;0;0;0
184.71425;-0.004003158771;0;350;0;-29.0859375;0;0;0;0;2.117604494;-20.48226929;-0.5026962757;4074.22876;15;0;0;0;0;0;0;0;0;0;0;0;0;0;0;0;0.001000000047;0;0;0;0;0;1.355311394;1.315299392;1000;0.0003906488419;1.221433997;1.222239017;0.002000000095;100;0.0007902951329;0;0;0;0.001000000047;1;0;0;0
184.7153;-0.004003158771;0;350;0;-29.0859375;0;0;0;0;2.117604494;-20.48226929;-0.5026962757;4074.22876;15;0;0;0;0;0;0;0;0;0;0;0;0;0;0;0;0.001000000047;0;0;0;0;0;1.36202693;1.318168998;1000;0.0003906488419;1.221433997;1.222239017;0.002000000095;100;0.000791740662;0;0;0;0.001000000047;1;0;0;0
184.716;-0.004003158771;0;350;0;-29.0859375;0;0;0;0;2.117604494;-20.48226929;-0.5026962757;4074.22876;15;0;0;0;0;0;0;0;0;0;0;0;0;0;0;0;0.001000000047;0;0;0;0;0;1.304029346;1.315695047;1000;0.0003906488419;1.221433997;1.222239017;0.002000000095;100;0.0007910357672;0;0;0;0.001000000047;1;0;0;0
184.71705;-0.004003158771;0;350;0;-29.0859375;0;0;0;0;2.117604494;-20.48226929;-0.5026962757;4074.22876;15;0;0;0;0;0;0;0;0;0;0;0;0;0;0;0;0.001000000047;0;0;0;0;0;1.348595858;1.318930626;1000;0.0003906488419;1.221433997;1.222239017;0.002000000095;100;0.0007890478009;0;0;0;0.001000000047;1;0;0;0
184.7181;-0.004003158771;0;350;0;-29.0859375;0;0;0;0;2.117604494;-20.48226929;-0.5026962757;4074.22876;15;0;0;0;0;0;0;0;0;0;0;0;0;0;0;0;0.001000000047;0;0;0;0;0;1.326617956;1.320130706;1000;0.0003906488419;1.221433997;1.222239017;0.002000000095;100;0.0007871479029;0;0;0;0.001000000047;1;0;0;0
184.71915;-0.004003158771;0;350;0;-29.0859375;0;0;0;0;2.117604494;-20.48226929;-0.5026962757;4074.22876;15;0;0;0;0;0;0;0;0;0;0;0;0;0;0;0;0.001000000047;0;0;0;0;0;1.315628886;1.320056915;1000;0.0003906488419;1.221433997;1.222239017;0.002000000095;100;0.0007856322918;0;0;0;0.001000000047;1;0;0;0
184.7202;-0.004003158771;0;350;0;-29.0859375;0;0;0;0;2.117604494;-20.48226929;-0.5026962757;4074.22876;15;0;0;0;0;0;0;0;0;0;0;0;0;0;0;0;0.001000000047;0;0;0;0;0;1.321733952;1.320156455;1000;0.0003906488419;1.221433997;1.222239017;0.002000000095;100;0.0007857611636;0;0;0;0.001000000047;1;0;0;0
184.72125;-0.004003158771;0;350;0;-29.0859375;0;0;0;0;2.117604494;-20.48226929;-0.5026962757;4074.22876;15;0;0;0;0;0;0;0;0;0;0;0;0;0;0;0;0.001000000047;0;0;0;0;0;1.326617956;1.318596005;1000;0.0003906488419;1.221433997;1.222239017;0.002000000095;100;0.0007876886521;0;0;0;0.001000000047;1;0;0;0
184.72195;-0.004003158771;0;350;0;-29.0859375;0;0;0;0;2.117604494;-20.48226929;-0.5026962757;4074.22876;15;0;0;0;0;0;0;0;0;0;0;0;0;0;0;0;0.001000000047;0;0;0;0;0;1.305250406;1.318568826;1000;0.0003906488419;1.221433997;1.222239017;0.002000000095;100;0.0007892067661;0;0;0;0.001000000047;1;0;0;0
184.723;-0.004003158771;0;350;0;-29.0859375;0;0;0;0;2.117604494;-20.48226929;-0.5026962757;4074.22876;15;0;0;0;0;0;0;0;0;0;0;0;0;0;0;0;0.001000000047;0;0;0;0;0;1.26678884;1.316855788;1000;0.0003906488419;1.221433997;1.222239017;0.002000000095;100;0.0007913013687;0;0;0;0.001000000047;1;0;0;0
184.72405;-0.004003158771;0;350;0;-29.0859375;0;0;0;0;2.117604494;-20.48226929;-0.5026962757;4074.22876;15;0;0;0;0;0;0;0;0;0;0;0;0;0;0;0;0.001000000047;0;0;0;0;0;1.318681359;1.316745043;1000;0.0003906488419;1.221433997;1.222239017;0.002000000095;100;0.0007942934171;0;0;0;0.001000000047;1;0;0;0
184.7251;-0.004003158771;0;350;0;-29.0859375;0;0;0;0;2.117604494;-20.48226929;-0.5026962757;4074.22876;15;0;0;0;0;0;0;0;0;0;0;0;0;0;0;0;0.001000000047;0;0;0;0;0;1.210622668;1.313037157;1000;0.0003906488419;1.221433997;1.222239017;0.002000000095;100;0.0007983371615;0;0;0;0.001000000047;1;0;0;0
184.72615;-0.004003158771;0;350;0;-29.0859375;0;0;0;0;2.117604494;-20.48226929;-0.5026962757;4074.22876;15;0;0;0;0;0;0;0;0;0;0;0;0;0;0;0;0.001000000047;0;0;0;0;0;1.307081938;1.312737584;1000;0.0003906488419;1.221433997;1.222239017;0.002000000095;100;0.0008050873876;0;0;0;0.001000000047;1;0;0;0
184.7272;-0.004003158771;0;350;0;-29.0859375;0;0;0;0;2.117604494;-20.48226929;-0.5026962757;4074.22876;15;0;0;0;0;0;0;0;0;0;0;0;0;0;0;0;0.001000000047;0;0;0;0;0;1.310134411;1.313022017;1000;0.0003906488419;1.221433997;1.222239017;0.002000000095;100;0.0008125805762;0;0;0;0.001000000047;1;0;0;0
184.72825;-0.004003158771;0;350;0;-29.0859375;0;0;0;0;2.117604494;-20.48226929;-0.5026962757;4074.22876;15;0;0;0;0;0;0;0;0;0;0;0;0;0;0;0;0.001000000047;0;0;0;0;0;1.322954893;1.312479258;1000;0.0003906488419;1.221433997;1.222239017;0.002000000095;100;0.0008190090884;0;0;0;0.001000000047;1;0;0;0
184.72895;-0.004003158771;0;350;0;-29.0859375;0;0;0;0;2.117604494;-20.48226929;-0.5026962757;4074.22876;15;0;0;0;0;0;0;0;0;0;0;0;0;0;0;0;0.001000000047;0;0;0;0;0;1.301587343;1.311662555;1000;0.0003906488419;1.221433997;1.222239017;0.002000000095;100;0.0008226053906;0;0;0;0.001000000047;1;0;0;0
184.73;-0.004003158771;0;350;0;-29.0859375;0;0;0;0;2.117604494;-20.48226929;-0.5026962757;4074.22876;15;0;0;0;0;0;0;0;0;0;0;0;0;0;0;0;0.001000000047;0;0;0;0;0;1.270451784;1.309458017;1000;0.0003906488419;1.221433997;1.222239017;0.002000000095;100;0.0008279916365;0;0;0;0.001000000047;1;0;0;0
184.73105;-0.004003158771;0;350;0;-29.0859375;0;0;0;0;2.117604494;-20.48226929;-0.5026962757;4074.22876;15;0;0;0;0;0;0;0;0;0;0;0;0;0;0;0;0.001000000047;0;0;0;0;0;1.326617956;1.311265469;1000;0.0003906488419;1.221433997;1.222239017;0.002000000095;100;0.0008329180419;0;0;0;0.001000000047;1;0;0;0
184.7321;-0.004003158771;0;350;0;-29.0859375;0;0;0;0;2.117604494;-20.48226929;-0.5026962757;4074.22876;15;0;0;0;0;0;0;0;0;0;0;0;0;0;0;0;0.001000000047;0;0;0;0;0;1.333333373;1.31361115;1000;0.0003906488419;1.221433997;1.222239017;0.002000000095;100;0.000837373489;0;0;0;0.001000000047;1;0;0;0
184.73315;-0.004003158771;0;350;0;-29.0859375;0;0;0;0;2.117604494;-20.48226929;-0.5026962757;4074.22876;15;0;0;0;0;0;0;0;0;0;0;0;0;0;0;0;0.001000000047;0;0;0;0;0;1.29853487;1.314346433;1000;0.0003906488419;1.221433997;1.222239017;0.002000000095;100;0.0008406657726;0;0;0;0.001000000047;1;0;0;0
184.7342;-0.004003158771;0;350;0;-29.0859375;0;0;0;0;2.117604494;-20.48226929;-0.5026962757;4074.22876;15;0;0;0;0;0;0;0;0;0;0;0;0;0;0;0;0.001000000047;0;0;0;0;0;1.333943844;1.316331029;1000;0.0003906488419;1.221433997;1.222239017;0.002000000095;100;0.0008425135748;0;0;0;0.001000000047;1;0;0;0
184.73525;-0.004003158771;0;350;0;-29.0859375;0;0;0;0;2.117604494;-20.48226929;-0.5026962757;4074.22876;15;0;0;0;0;0;0;0;0;0;0;0;0;0;0;0;0.001000000047;0;0;0;0;0;1.346153975;1.318826199;1000;0.0003906488419;1.221433997;1.222239017;0.002000000095;100;0.000844173599;0;0;0;0.001000000047;1;0;0;0
184.73595;-0.004003158771;0;350;0;-29.0859375;0;0;0;0;2.117604494;-20.48226929;-0.5026962757;4074.22876;15;0;0;0;0;0;0;0;0;0;0;0;0;0;0;0;0.001000000047;0;0;0;0;0;1.333333373;1.318888426;1000;0.0003906488419;1.221433997;1.222239017;0.002000000095;100;0.0008451859467;0;0;0;0.001000000047;1;0;0;0
184.737;-0.004003158771;0;350;0;-29.0859375;0;0;0;0;2.117604494;-20.48226929;-0.5026962757;4074.22876;15;0;0;0;0;0;0;0;0;0;0;0;0;0;0;0;0.001000000047;0;0;0;0;0;1.27777791;1.318247676;1000;0.0003906488419;1.221433997;1.222239017;0.002000000095;100;0.0008452851907;0;0;0;0.001000000047;1;0;0;0
184.73805;-0.004003158771;0;350;0;-29.0859375;0;0;0;0;2.117604494;-20.48226929;-0.5026962757;4074.22876;15;0;0;0;0;0;0;0;0;0;0;0;0;0;0;0;0.001000000047;0;0;0;0;0;1.328449368;1.319722533;1000;0.0003906488419;1.221433997;1.222239017;0.002000000095;100;0.0008440434467;0;0;0;0.001000000047;1;0;0;0
184.7391;-0.004003158771;0;350;0;-29.0859375;0;0;0;0;2.117604494;-20.48226929;-0.5026962757;4074.22876;15;0;0;0;0;0;0;0;0;0;0;0;0;0;0;0;0.001000000047;0;0;0;0;0;1.330891371;1.320479751;1000;0.0003906488419;1.221433997;1.222239017;0.002000000095;100;0.0008395102341;0;0;0;0.001000000047;1;0;0;0
184.74015;-0.004003158771;0;350;0;-29.0859375;0;0;0;0;2.117604494;-20.48226929;-0.5026962757;4074.22876;15;0;0;0;0;0;0;0;0;0;0;0;0;0;0;0;0.001000000047;0;0;0;0;0;1.273504376;1.318462014;1000;0.0003906488419;1.221433997;1.222239017;0.002000000095;100;0.0008332619909;0;0;0;0.001000000047;1;0;0;0
184.7412;-0.004003158771;0;350;0;-29.0859375;0;0;0;0;2.117604494;-20.48226929;-0.5026962757;4074.22876;15;0;0;0;0;0;0;0;0;0;0;0;0;0;0;0;0.001000000047;0;0;0;0;0;1.316239357;1.317130804;1000;0.0003906488419;1.221433997;1.222239017;0.002000000095;100;0.0008274346474;0;0;0;0.001000000047;1;0;0;0
184.74225;-0.004003158771;0;350;0;-29.0859375;0;0;0;0;2.117604494;-20.48226929;-0.5026962757;4074.22876;15;0;0;0;0;0;0;0;0;0;0;0;0;0;0;0;0.001000000047;0;0;0;0;0;1.321733952;1.31566751;1000;0.0003906488419;1.221433997;1.222239017;0.002000000095;100;0.0008216713904;0;0;0;0.001000000047;1;0;0;0
184.74295;-0.004003158771;0;350;0;-29.0859375;0;0;0;0;2.117604494;-20.48226929;-0.5026962757;4074.22876;15;0;0;0;0;0;0;0;0;0;0;0;0;0;0;0;0.001000000047;0;0;0;0;0;1.287545919;1.311371207;1000;0.0003906488419;1.221433997;1.222239017;0.002000000095;100;0.0008175436524;0;0;0;0.001000000047;1;0;0;0
184.744;-0.004003158771;0;350;0;-29.0859375;0;0;0;0;2.117604494;-20.48226929;-0.5026962757;4074.22876;15;0;0;0;0;0;0;0;0;0;0;0;0;0;0;0;0.001000000047;0;0;0;0;0;1.291208863;1.308793902;1000;0.0003906488419;1.221433997;1.222239017;0.002000000095;100;0.0008113349322;0;0;0;0.001000000047;1;0;0;0
184.74505;-0.004003158771;0;350;0;-29.0859375;0;0;0;0;2.117604494;-20.48226929;-0.5026962757;4074.22876;15;0;0;0;0;0;0;0;0;0;0;0;0;0;0;0;0.001000000047;0;0;0;0;0;1.208180666;1.305636406;1000;0.0003906488419;1.221433997;1.222239017;0.002000000095;100;0.0008054361679;0;0;0;0.001000000047;1;0;0;0
184.7461;-0.004003158771;0;350;0;-29.0859375;0;0;0;0;2.117604494;-20.48226929;-0.5026962757;4074.22876;15;0;0;0;0;0;0;0;0;0;0;0;0;0;0;0;0.001000000047;0;0;0;0;0;1.316239357;1.306196094;1000;0.0003906488419;1.221433997;1.222239017;0.002000000095;100;0.0008014923078;0;0;0;0.001000000047;1;0;0;0
184.74715;-0.004003158771;0;350;0;-29.0859375;0;0;0;0;2.117604494;-20.48226929;-0.5026962757;4074.22876;15;0;0;0;0;0;0;0;0;0;0;0;0;0;0;0;0.001000000047;0;0;0;0;0;1.304639816;1.306267023;1000;0.0003906488419;1.221433997;1.222239017;0.002000000095;100;0.0007991094608;0;0;0;0.001000000047;1;0;0;0
184.7482;-0.004003158771;0;350;0;-29.0859375;0;0;0;0;2.117604494;-20.48226929;-0.5026962757;4074.22876;15;0;0;0;0;0;0;0;0;0;0;0;0;0;0;0;0.001000000047;0;0;0;0;0;1.300976872;1.306786299;1000;0.0003906488419;1.221433997;1.222239017;0.002000000095;100;0.0007970529259;0;0;0;0.001000000047;1;0;0;0
184.7489;-0.004003158771;0;350;0;-29.0859375;0;0;0;0;2.117604494;-20.48226929;-0.5026962757;4074.22876;15;0;0;0;0;0;0;0;0;0;0;0;0;0;0;0;0.001000000047;0;0;0;0;0;1.321733952;1.307329297;1000;0.0003906488419;1.221433997;1.222239017;0.002000000095;100;0.0007948630373;0;0;0;0.001000000047;1;0;0;0
184.74995;-0.004003158771;0;350;0;-29.0859375;0;0;0;0;2.117604494;-20.48226929;-0.5026962757;4074.22876;15;0;0;0;0;0;0;0;0;0;0;0;0;0;0;0;0.001000000047;0;0;0;0;0;1.312576413;1.304440141;1000;0.0003906488419;1.221433997;1.222239017;0.002000000095;100;0.0007899812772;0;0;0;0.001000000047;1;0;0;0
184.751;-0.004003158771;0;350;0;-29.0859375;0;0;0;0;2.117604494;-20.48226929;-0.5026962757;4074.22876;15;0;0;0;0;0;0;0;0;0;0;0;0;0;0;0;0.001000000047;0;0;0;0;0;1.291819334;1.305082083;1000;0.0003906488419;1.221433997;1.222239017;0.002000000095;100;0.000784667558;0;0;0;0.001000000047;1;0;0;0
184.75205;-0.004003158771;0;350;0;-29.0859375;0;0;0;0;2.117604494;-20.48226929;-0.5026962757;4074.22876;15;0;0;0;0;0;0;0;0;0;0;0;0;0;0;0;0.001000000047;0;0;0;0;0;1.210012197;1.301929474;1000;0.0003906488419;1.221433997;1.222239017;0.002000000095;100;0.000778519141;0;0;0;0.001000000047;1;0;0;0
184.7531;-0.004003158771;0;350;0;-29.0859375;0;0;0;0;2.117604494;-20.48226929;-0.5026962757;4074.22876;15;0;0;0;0;0;0;0;0;0;0;0;0;0;0;0;0.001000000047;0;0;0;0;0;1.227716684;1.301912904;1000;0.0003906488419;1.221433997;1.222239017;0.002000000095;100;0.0007720845169;0;0;0;0.001000000047;1;0;0;0
184.75415;-0.004003158771;0;350;0;-29.0859375;0;0;0;0;2.117604494;-20.48226929;-0.5026962757;4074.22876;15;0;0;0;0;0;0;0;0;0;0;0;0;0;0;0;0.001000000047;0;0;0;0;0;1.357753396;1.306432486;1000;0.0003906488419;1.221433997;1.222239017;0.002000000095;100;0.0007659771363;0;0;0;0.001000000047;1;0;0;0
184.7552;-0.004003158771;0;350;0;-29.0859375;0;0;0;0;2.117604494;-20.48226929;-0.5026962757;4074.22876;15;0;0;0;0;0;0;0;0;0;0;0;0;0;0;0;0.001000000047;0;0;0;0;0;1.338217378;1.309661746;1000;0.0003906488419;1.221433997;1.222239017;0.002000000095;100;0.0007602236583;0;0;0;0.001000000047;1;0;0;0
184.7559;-0.004003158771;0;350;0;-29.0859375;0;0;0;0;2.117604494;-20.48226929;-0.5026962757;4074.22876;15;0;0;0;0;0;0;0;0;0;0;0;0;0;0;0;0.001000000047;0;0;0;0;0;1.366300464;1.311296344;1000;0.0003906488419;1.221433997;1.222239017;0.002000000095;100;0.0007566062268;0;0;0;0.001000000047;1;0;0;0
184.75695;-0.004003158771;0;350;0;-29.0859375;0;0;0;0;2.117604494;-20.48226929;-0.5026962757;4074.22876;15;0;0;0;0;0;0;0;0;0;0;0;0;0;0;0;0.001000000047;0;0;0;0;0;1.340048909;1.31457746;1000;0.0003906488419;1.221433997;1.222239017;0.002000000095;100;0.0007510976284;0;0;0;0.001000000047;1;0;0;0
184.758;-0.004003158771;0;350;0;-29.0859375;0;0;0;0;2.117604494;-20.48226929;-0.5026962757;4074.22876;15;0;0;0;0;0;0;0;0;0;0;0;0;0;0;0;0.001000000047;0;0;0;0;0;1.321123362;1.316305161;1000;0.0003906488419;1.221433997;1.222239017;0.002000000095;100;0.0007462057401;0;0;0;0.001000000047;1;0;0;0
184.75905;-0.004003158771;0;350;0;-29.0859375;0;0;0;0;2.117604494;-20.48226929;-0.5026962757;4074.22876;15;0;0;0;0;0;0;0;0;0;0;0;0;0;0;0;0.001000000047;0;0;0;0;0;1.310134411;1.31718576;1000;0.0003906488419;1.221433997;1.222239017;0.002000000095;100;0.0007399749011;0;0;0;0.001000000047;1;0;0;0
184.7601;-0.004003158771;0;350;0;-29.0859375;0;0;0;0;2.117604494;-20.48226929;-0.5026962757;4074.22876;15;0;0;0;0;0;0;0;0;0;0;0;0;0;0;0;0.001000000047;0;0;0;0;0;1.296092868;1.317177415;1000;0.0003906488419;1.221433997;1.222239017;0.002000000095;100;0.0007330782246;0;0;0;0.001000000047;1;0;0;0
184.76115;-0.004003158771;0;350;0;-29.0859375;0;0;0;0;2.117604494;-20.48226929;-0.5026962757;4074.22876;15;0;0;0;0;0;0;0;0;0;0;0;0;0;0;0;0.001000000047;0;0;0;0;0;1.22344327;1.314248562;1000;0.0003906488419;1.221433997;1.222239017;0.002000000095;100;0.0007226257003;0;0;0;0.001000000047;1;0;0;0
184.7622;-0.004003158771;0;350;0;-29.0859375;0;0;0;0;2.117604494;-20.48226929;-0.5026962757;4074.22876;15;0;0;0;0;0;0;0;0;0;0;0;0;0;0;0;0.001000000047;0;0;0;0;0;1.315018415;1.312875152;1000;0.0003906488419;1.221433997;1.222239017;0.002000000095;100;0.0007110206061;0;0;0;0.001000000047;1;0;0;0
184.7629;-0.004003158771;0;350;0;-29.0859375;0;0;0;0;2.117604494;-20.48226929;-0.5026962757;4074.22876;15;0;0;0;0;0;0;0;0;0;0;0;0;0;0;0;0.001000000047;0;0;0;0;0;1.323565364;1.31199944;1000;0.0003906488419;1.221433997;1.222239017;0.002000000095;100;0.0007038970944;0;0;0;0.001000000047;1;0;0;0
184.76395;-0.004003158771;0;350;0;-29.0859375;0;0;0;0;2.117604494;-20.48226929;-0.5026962757;4074.22876;15;0;0;0;0;0;0;0;0;0;0;0;0;0;0;0;0.001000000047;0;0;0;0;0;1.311965942;1.312343478;1000;0.0003906488419;1.221433997;1.222239017;0.002000000095;100;0.0006941530737;0;0;0;0.001000000047;1;0;0;0
184.765;-0.004003158771;0;350;0;-29.0859375;0;0;0;0;2.117604494;-20.48226929;-0.5026962757;4074.22876;15;0;0;0;0;0;0;0;0;0;0;0;0;0;0;0;0.001000000047;0;0;0;0;0;1.30891335;1.313534021;1000;0.0003906488419;1.221433997;1.222239017;0.002000000095;100;0.0006844076561;0;0;0;0.001000000047;1;0;0;0
184.76605;-0.004003158771;0;350;0;-29.0859375;0;0;0;0;2.117604494;-20.48226929;-0.5026962757;4074.22876;15;0;0;0;0;0;0;0;0;0;0;0;0;0;0;0;0.001000000047;0;0;0;0;0;1.31990242;1.314318538;1000;0.0003906488419;1.221433997;1.222239017;0.002000000095;100;0.0006742581609;0;0;0;0.001000000047;1;0;0;0
184.7671;-0.004003158771;0;350;0;-29.0859375;0;0;0;0;2.117604494;-20.48226929;-0.5026962757;4074.22876;15;0;0;0;0;0;0;0;0;0;0;0;0;0;0;0;0.001000000047;0;0;0;0;0;1.278388381;1.313895702;1000;0.0003906488419;1.221433997;1.222239017;0.002000000095;100;0.0006638960331;0;0;0;0.001000000047;1;0;0;0
184.76815;-0.004003158771;0;350;0;-29.0859375;0;0;0;0;2.117604494;-20.48226929;-0.5026962757;4074.22876;15;0;0;0;0;0;0;0;0;0;0;0;0;0;0;0;0.001000000047;0;0;0;0;0;1.25579977;1.312799811;1000;0.0003906488419;1.221433997;1.222239017;0.002000000095;100;0.0006544004427;0;0;0;0.001000000047;1;0;0;0
184.7692;-0.004003158771;0;350;0;-29.0859375;0;0;0;0;2.117604494;-20.48226929;-0.5026962757;4074.22876;15;0;0;0;0;0;0;0;0;0;0;0;0;0;0;0;0.001000000047;0;0;0;0;0;1.230769277;1.310517311;1000;0.0003906488419;1.221433997;1.222239017;0.002000000095;100;0.0006470268709;0;0;0;0.001000000047;1;0;0;0
184.7699;-0.004003158771;0;350;0;-29.0859375;0;0;0;0;2.117604494;-20.48226929;-0.5026962757;4074.22876;15;0;0;0;0;0;0;0;0;0;0;0;0;0;0;0;0.001000000047;0;0;0;0;0;1.343101382;1.310205936;1000;0.0003906488419;1.221433997;1.222239017;0.002000000095;100;0.0006432430237;0;0;0;0.001000000047;1;0;0;0
184.77095;-0.004003158771;0;350;0;-29.0859375;0;0;0;0;2.117604494;-20.48226929;-0.5026962757;4074.22876;15;0;0;0;0;0;0;0;0;0;0;0;0;0;0;0;0.001000000047;0;0;0;0;0;1.342490911;1.311551094;1000;0.0003906488419;1.221433997;1.222239017;0.002000000095;100;0.0006385669112;0;0;0;0.001000000047;1;0;0;0
184.772;-0.004003158771;0;350;0;-29.0859375;0;0;0;0;2.117604494;-20.48226929;-0.5026962757;4074.22876;15;0;0;0;0;0;0;0;0;0;0;0;0;0;0;0;0.001000000047;0;0;0;0;0;1.325396895;1.312669396;1000;0.0003906488419;1.221433997;1.222239017;0.002000000095;100;0.0006349727628;0;0;0;0.001000000047;1;0;0;0
184.77305;-0.004003158771;0;350;0;-29.0859375;0;0;0;0;2.117604494;-20.48226929;-0.5026962757;4074.22876;15;0;0;0;0;0;0;0;0;0;0;0;0;0;0;0;0.001000000047;0;0;0;0;0;1.226495743;1.309549928;1000;0.0003906488419;1.221433997;1.222239017;0.002000000095;100;0.0006326652947;0;0;0;0.001000000047;1;0;0;0
184.7741;-0.004003158771;0;350;0;-29.0859375;0;0;0;0;2.117604494;-20.48226929;-0.5026962757;4074.22876;15;0;0;0;0;0;0;0;0;0;0;0;0;0;0;0;0.001000000047;0;0;0;0;0;1.318070889;1.312391043;1000;0.0003906488419;1.221433997;1.222239017;0.002000000095;100;0.0006330391625;0;0;0;0.001000000047;1;0;0;0
184.77515;-0.004003158771;0;350;0;-29.0859375;0;0;0;0;2.117604494;-20.48226929;-0.5026962757;4074.22876;15;0;0;0;0;0;0;0;0;0;0;0;0;0;0;0;0.001000000047;0;0;0;0;0;1.287545919;1.314171076;1000;0.0003906488419;1.221433997;1.222239017;0.002000000095;100;0.000635659555;0;0;0;0.001000000047;1;0;0;0
184.77585;-0.004003158771;0;350;0;-29.0859375;0;0;0;0;2.117604494;-20.48226929;-0.5026962757;4074.22876;15;0;0;0;0;0;0;0;0;0;0;0;0;0;0;0;0.001000000047;0;0;0;0;0;1.363247871;1.316500425;1000;0.0003906488419;1.221433997;1.222239017;0.002000000095;100;0.0006378646358;0;0;0;0.001000000047;1;0;0;0
184.7769;-0.004003158771;0;350;0;-29.0859375;0;0;0;0;2.117604494;-20.48226929;-0.5026962757;4074.22876;15;0;0;0;0;0;0;0;0;0;0;0;0;0;0;0;0.001000000047;0;0;0;0;0;1.356532454;1.319448948;1000;0.0003906488419;1.221433997;1.222239017;0.002000000095;100;0.0006414976087;0;0;0;0.001000000047;1;0;0;0
184.77795;-0.004003158771;0;350;0;-29.0859375;0;0;0;0;2.117604494;-20.48226929;-0.5026962757;4074.22876;15;0;0;0;0;0;0;0;0;0;0;0;0;0;0;0;0.001000000047;0;0;0;0;0;1.332722902;1.320752859;1000;0.0003906488419;1.221433997;1.222239017;0.002000000095;100;0.0006455634721;0;0;0;0.001000000047;1;0;0;0
184.779;-0.004003158771;0;350;0;-29.0859375;0;0;0;0;2.117604494;-20.48226929;-0.5026962757;4074.22876;15;0;0;0;0;0;0;0;0;0;0;0;0;0;0;0;0.001000000047;0;0;0;0;0;1.294871807;1.320955276;1000;0.0003906488419;1.221433997;1.222239017;0.002000000095;100;0.0006495590787;0;0;0;0.001000000047;1;0;0;0
184.78005;-0.004003158771;0;350;0;-29.0859375;0;0;0;0;2.117604494;-20.48226929;-0.5026962757;4074.22876;15;0;0;0;0;0;0;0;0;0;0;0;0;0;0;0;0.001000000047;0;0;0;0;0;1.318681359;1.320860624;1000;0.0003906488419;1.221433997;1.222239017;0.002000000095;100;0.0006535537541;0;0;0;0.001000000047;1;0;0;0
184.7811;-0.004003158771;0;350;0;-29.0859375;0;0;0;0;2.117604494;-20.48226929;-0.5026962757;4074.22876;15;0;0;0;0;0;0;0;0;0;0;0;0;0;0;0;0.001000000047;0;0;0;0;0;1.252747297;1.318751931;1000;0.0003906488419;1.221433997;1.222239017;0.002000000095;100;0.0006544177886;0;0;0;0.001000000047;1;0;0;0
184.78215;-0.004003158771;0;350;0;-29.0859375;0;0;0;0;2.117604494;-20.48226929;-0.5026962757;4074.22876;15;0;0;0;0;0;0;0;0;0;0;0;0;0;0;0;0.001000000047;0;0;0;0;0;1.328449368;1.318895221;1000;0.0003906488419;1.221433997;1.222239017;0.002000000095;100;0.0006535530556;0;0;0;0.001000000047;1;0;0;0
184.78285;-0.004003158771;0;350;0;-29.0859375;0;0;0;0;2.117604494;-20.48226929;-0.5026962757;4074.22876;15;0;0;0;0;0;0;0;0;0;0;0;0;0;0;0;0.001000000047;0;0;0;0;0;1.326617956;1.318191648;1000;0.0003906488419;1.221433997;1.222239017;0.002000000095;100;0.0006530685932;0;0;0;0.001000000047;1;0;0;0
184.7839;-0.004003158771;0;350;0;-29.0859375;0;0;0;0;2.117604494;-20.48226929;-0.5026962757;4074.22876;15;0;0;0;0;0;0;0;0;0;0;0;0;0;0;0;0.001000000047;0;0;0;0;0;1.324786425;1.313935399;1000;0.0003906488419;1.221433997;1.222239017;0.002000000095;100;0.0006532057887;0;0;0;0.001000000047;1;0;0;0
184.78495;-0.004003158771;0;350;0;-29.0859375;0;0;0;0;2.117604494;-20.48226929;-0.5026962757;4074.22876;15;0;0;0;0;0;0;0;0;0;0;0;0;0;0;0;0.001000000047;0;0;0;0;0;1.311355352;1.312527537;1000;0.0003906488419;1.221433997;1.222239017;0.002000000095;100;0.0006544249482;0;0;0;0.001000000047;1;0;0;0
184.786;-0.004003158771;0;350;0;-29.0859375;0;0;0;0;2.117604494;-20.48226929;-0.5026962757;4074.22876;15;0;0;0;0;0;0;0;0;0;0;0;0;0;0;0;0.001000000047;0;0;0;0;0;1.291819334;1.30927527;1000;0.0003906488419;1.221433997;1.222239017;0.002000000095;100;0.0006564169889;0;0;0;0.001000000047;1;0;0;0
184.78705;-0.004003158771;0;350;0;-29.0859375;0;0;0;0;2.117604494;-20.48226929;-0.5026962757;4074.22876;15;0;0;0;0;0;0;0;0;0;0;0;0;0;0;0;0.001000000047;0;0;0;0;0;1.313797355;1.309342384;1000;0.0003906488419;1.221433997;1.222239017;0.002000000095;100;0.0006588810938;0;0;0;0.001000000047;1;0;0;0
184.7881;-0.004003158771;0;350;0;-29.0859375;0;0;0;0;2.117604494;-20.48226929;-0.5026962757;4074.22876;15;0;0;0;0;0;0;0;0;0;0;0;0;0;0;0;0.001000000047;0;0;0;0;0;1.206349254;1.30662775;1000;0.0003906488419;1.221433997;1.222239017;0.002000000095;100;0.0006605286617;0;0;0;0.001000000047;1;0;0;0
184.78915;-0.004003158771;0;350;0;-29.0859375;0;0;0;0;2.117604494;-20.48226929;-0.5026962757;4074.22876;15;0;0;0;0;0;0;0;0;0;0;0;0;0;0;0;0.001000000047;0;0;0;0;0;1.27716732;1.306827664;1000;0.0003906488419;1.221433997;1.222239017;0.002000000095;100;0.0006624715752;0;0;0;0.001000000047;1;0;0;0
184.78985;-0.004003158771;0;350;0;-29.0859375;0;0;0;0;2.117604494;-20.48226929;-0.5026962757;4074.22876;15;0;0;0;0;0;0;0;0;0;0;0;0;0;0;0;0.001000000047;0;0;0;0;0;1.339438438;1.308329821;1000;0.0003906488419;1.221433997;1.222239017;0.002000000095;100;0.000663875544;0;0;0;0.001000000047;1;0;0;0
184.7909;-0.004003158771;0;350;0;-29.0859375;0;0;0;0;2.117604494;-20.48226929;-0.5026962757;4074.22876;15;0;0;0;0;0;0;0;0;0;0;0;0;0;0;0;0.001000000047;0;0;0;0;0;1.346153975;1.309860706;1000;0.0003906488419;1.221433997;1.222239017;0.002000000095;100;0.0006659576902;0;0;0;0.001000000047;1;0;0;0
184.79195;-0.004003158771;0;350;0;-29.0859375;0;0;0;0;2.117604494;-20.48226929;-0.5026962757;4074.22876;15;0;0;0;0;0;0;0;0;0;0;0;0;0;0;0;0.001000000047;0;0;0;0;0;1.347985387;1.312082171;1000;0.0003906488419;1.221433997;1.222239017;0.002000000095;100;0.0006681486266;0;0;0;0.001000000047;1;0;0;0
184.793;-0.004003158771;0;350;0;-29.0859375;0;0;0;0;2.117604494;-20.48226929;-0.5026962757;4074.22876;15;0;0;0;0;0;0;0;0;0;0;0;0;0;0;0;0.001000000047;0;0;0;0;0;1.340048909;1.311504722;1000;0.0003906488419;1.221433997;1.222239017;0.002000000095;100;0.000669443456;0;0;0;0.001000000047;1;0;0;0
184.79405;-0.004003158771;0;350;0;-29.0859375;0;0;0;0;2.117604494;-20.48226929;-0.5026962757;4074.22876;15;0;0;0;0;0;0;0;0;0;0;0;0;0;0;0;0.001000000047;0;0;0;0;0;1.316239357;1.313359022;1000;0.0003906488419;1.221433997;1.222239017;0.002000000095;100;0.0006720598321;0;0;0;0.001000000047;1;0;0;0
184.7951;-0.004003158771;0;350;0;-29.0859375;0;0;0;0;2.117604494;-20.48226929;-0.5026962757;4074.22876;15;0;0;0;0;0;0;0;0;0;0;0;0;0;0;0;0.001000000047;0;0;0;0;0;1.336996436;1.316301107;1000;0.0003906488419;1.221433997;1.222239017;0.002000000095;100;0.0006762582343;0;0;0;0.001000000047;1;0;0;0
184.79615;-0.004003158771;0;350;0;-29.0859375;0;0;0;0;2.117604494;-20.48226929;-0.5026962757;4074.22876;15;0;0;0;0;0;0;0;0;0;0;0;0;0;0;0;0.001000000047;0;0;0;0;0;1.312576413;1.318585992;1000;0.0003906488419;1.221433997;1.222239017;0.002000000095;100;0.0006833848893;0;0;0;0.001000000047;1;0;0;0
184.79685;-0.004003158771;0;350;0;-29.0859375;0;0;0;0;2.117604494;-20.48226929;-0.5026962757;4074.22876;15;0;0;0;0;0;0;0;0;0;0;0;0;0;0;0;0.001000000047;0;0;0;0;0;1.35164845;1.320361972;1000;0.0003906488419;1.221433997;1.222239017;0.002000000095;100;0.000689175271;0;0;0;0.001000000047;1;0;0;0
184.7979;-0.004003158771;0;350;0;-29.0859375;0;0;0;0;2.117604494;-20.48226929;-0.5026962757;4074.22876;15;0;0;0;0;0;0;0;0;0;0;0;0;0;0;0;0.001000000047;0;0;0;0;0;1.340048909;1.320619702;1000;0.0003906488419;1.221433997;1.222239017;0.002000000095;100;0.000697595824;0;0;0;0.001000000047;1;0;0;0
184.79895;-0.004003158771;0;350;0;-29.0859375;0;0;0;0;2.117604494;-20.48226929;-0.5026962757;4074.22876;15;0;0;0;0;0;0;0;0;0;0;0;0;0;0;0;0.001000000047;0;0;0;0;0;1.328449368;1.320940971;1000;0.0003906488419;1.221433997;1.222239017;0.002000000095;100;0.0007055239403;0;0;0;0.001000000047;1;0;0;0
184.8;-0.004003158771;0;350;0;-29.0859375;0;0;0;0;2.117604494;-20.48226929;-0.5026962757;4074.22876;15;0;0;0;0;0;0;0;0;0;0;0;0;0;0;0;0.001000000047;0;0;0;0;0;1.297924399;1.32047689;1000;0.0003906488419;1.221433997;1.222239017;0.002000000095;100;0.0007137476932;0;0;0;0.001000000047;1;0;0;0
184.80105;-0.004003158771;0;350;0;-29.0859375;0;0;0;0;2.117604494;-20.48226929;-0.5026962757;4074.22876;15;0;0;0;0;0;0;0;0;0;0;0;0;0;0;0;0.001000000047;0;0;0;0;0;1.210622668;1.317676544;1000;0.0003906488419;1.221433997;1.222239017;0.002000000095;100;0.00072259031;0;0;0;0.001000000047;1;0;0;0
184.8021;-0.004003158771;0;350;0;-29.0859375;0;0;0;0;2.117604494;-20.48226929;-0.5026962757;4074.22876;15;0;0;0;0;0;0;0;0;0;0;0;0;0;0;0;0.001000000047;0;0;0;0;0;1.320512891;1.317891479;1000;0.0003906488419;1.221433997;1.222239017;0.002000000095;100;0.0007322010933;0;0;0;0.001000000047;1;0;0;0
184.8028;-0.004003158771;0;350;0;-29.0859375;0;0;0;0;2.117604494;-20.48226929;-0.5026962757;4074.22876;15;0;0;0;0;0;0;0;0;0;0;0;0;0;0;0;0.001000000047;0;0;0;0;0;1.320512891;1.318037391;1000;0.0003906488419;1.221433997;1.222239017;0.002000000095;100;0.0007383198827;0;0;0;0.001000000047;1;0;0;0
184.80385;-0.004003158771;0;350;0;-29.0859375;0;0;0;0;2.117604494;-20.48226929;-0.5026962757;4074.22876;15;0;0;0;0;0;0;0;0;0;0;0;0;0;0;0;0.001000000047;0;0;0;0;0;1.3302809;1.316915274;1000;0.0003906488419;1.221433997;1.222239017;0.002000000095;100;0.000745475234;0;0;0;0.001000000047;1;0;0;0
184.8049;-0.004003158771;0;350;0;-29.0859375;0;0;0;0;2.117604494;-20.48226929;-0.5026962757;4074.22876;15;0;0;0;0;0;0;0;0;0;0;0;0;0;0;0;0.001000000047;0;0;0;0;0;1.331501961;1.317203522;1000;0.0003906488419;1.221433997;1.222239017;0.002000000095;100;0.0007492345758;0;0;0;0.001000000047;1;0;0;0
184.80595;-0.004003158771;0;350;0;-29.0859375;0;0;0;0;2.117604494;-20.48226929;-0.5026962757;4074.22876;15;0;0;0;0;0;0;0;0;0;0;0;0;0;0;0;0.001000000047;0;0;0;0;0;1.325396895;1.315770984;1000;0.0003906488419;1.221433997;1.222239017;0.002000000095;100;0.0007503050729;0;0;0;0.001000000047;1;0;0;0
184.807;-0.004003158771;0;350;0;-29.0859375;0;0;0;0;2.117604494;-20.48226929;-0.5026962757;4074.22876;15;0;0;0;0;0;0;0;0;0;0;0;0;0;0;0;0.001000000047;0;0;0;0;0;1.31990242;1.315094352;1000;0.0003906488419;1.221433997;1.222239017;0.002000000095;100;0.0007507170085;0;0;0;0.001000000047;1;0;0;0
184.80805;-0.004003158771;0;350;0;-29.0859375;0;0;0;0;2.117604494;-20.48226929;-0.5026962757;4074.22876;15;0;0;0;0;0;0;0;0;0;0;0;0;0;0;0;0.001000000047;0;0;0;0;0;1.296092868;1.312128901;1000;0.0003906488419;1.221433997;1.222239017;0.002000000095;100;0.000749723753;0;0;0;0.001000000047;1;0;0;0
184.8091;-0.004003158771;0;350;0;-29.0859375;0;0;0;0;2.117604494;-20.48226929;-0.5026962757;4074.22876;15;0;0;0;0;0;0;0;0;0;0;0;0;0;0;0;0.001000000047;0;0;0;0;0;1.31929183;1.313269138;1000;0.0003906488419;1.221433997;1.222239017;0.002000000095;100;0.0007467255928;0;0;0;0.001000000047;1;0;0;0
184.8098;-0.004003158771;0;350;0;-29.0859375;0;0;0;0;2.117604494;-20.48226929;-0.5026962757;4074.22876;15;0;0;0;0;0;0;0;0;0;0;0;0;0;0;0;0.001000000047;0;0;0;0;0;1.328449368;1.314600587;1000;0.0003906488419;1.221433997;1.222239017;0.002000000095;100;0.000743362878;0;0;0;0.001000000047;1;0;0;0
184.81085;-0.004003158771;0;350;0;-29.0859375;0;0;0;0;2.117604494;-20.48226929;-0.5026962757;4074.22876;15;0;0;0;0;0;0;0;0;0;0;0;0;0;0;0;0.001000000047;0;0;0;0;0;1.34126997;1.315065503;1000;0.0003906488419;1.221433997;1.222239017;0.002000000095;100;0.000737108523;0;0;0;0.001000000047;1;0;0;0
184.8119;-0.004003158771;0;350;0;-29.0859375;0;0;0;0;2.117604494;-20.48226929;-0.5026962757;4074.22876;15;0;0;0;0;0;0;0;0;0;0;0;0;0;0;0;0.001000000047;0;0;0;0;0;1.354700923;1.317338467;1000;0.0003906488419;1.221433997;1.222239017;0.002000000095;100;0.0007307578344;0;0;0;0.001000000047;1;0;0;0
184.81295;-0.004003158771;0;350;0;-29.0859375;0;0;0;0;2.117604494;-20.48226929;-0.5026962757;4074.22876;15;0;0;0;0;0;0;0;0;0;0;0;0;0;0;0;0.001000000047;0;0;0;0;0;1.362637401;1.319765687;1000;0.0003906488419;1.221433997;1.222239017;0.002000000095;100;0.0007251076167;0;0;0;0.001000000047;1;0;0;0
184.814;-0.004003158771;0;350;0;-29.0859375;0;0;0;0;2.117604494;-20.48226929;-0.5026962757;4074.22876;15;0;0;0;0;0;0;0;0;0;0;0;0;0;0;0;0.001000000047;0;0;0;0;0;1.357753396;1.322431326;1000;0.0003906488419;1.221433997;1.222239017;0.002000000095;100;0.0007204189897;0;0;0;0.001000000047;1;0;0;0
184.81505;-0.004003158771;0;350;0;-29.0859375;0;0;0;0;2.117604494;-20.48226929;-0.5026962757;4074.22876;15;0;0;0;0;0;0;0;0;0;0;0;0;0;0;0;0.001000000047;0;0;0;0;0;1.332112432;1.324682355;1000;0.0003906488419;1.221433997;1.222239017;0.002000000095;100;0.0007161200629;0;0;0;0.001000000047;1;0;0;0
184.8161;-0.004003158771;0;350;0;-29.0859375;0;0;0;0;2.117604494;-20.48226929;-0.5026962757;4074.22876;15;0;0;0;0;0;0;0;0;0;0;0;0;0;0;0;0.001000000047;0;0;0;0;0;1.304029346;1.326686382;1000;0.0003906488419;1.221433997;1.222239017;0.002000000095;100;0.0007141987444;0;0;0;0.001000000047;1;0;0;0
184.8168;-0.004003158771;0;350;0;-29.0859375;0;0;0;0;2.117604494;-20.48226929;-0.5026962757;4074.22876;15;0;0;0;0;0;0;0;0;0;0;0;0;0;0;0;0.001000000047;0;0;0;0;0;1.339438438;1.328148365;1000;0.0003906488419;1.221433997;1.222239017;0.002000000095;100;0.0007141308743;0;0;0;0.001000000047;1;0;0;0
184.81785;-0.004003158771;0;350;0;-29.0859375;0;0;0;0;2.117604494;-20.48226929;-0.5026962757;4074.22876;15;0;0;0;0;0;0;0;0;0;0;0;0;0;0;0;0.001000000047;0;0;0;0;0;1.339438438;1.328973413;1000;0.0003906488419;1.221433997;1.222239017;0.002000000095;100;0.0007147869328;0;0;0;0.001000000047;1;0;0;0
184.8189;-0.004003158771;0;350;0;-29.0859375;0;0;0;0;2.117604494;-20.48226929;-0.5026962757;4074.22876;15;0;0;0;0;0;0;0;0;0;0;0;0;0;0;0;0.001000000047;0;0;0;0;0;1.335164905;1.327243805;1000;0.0003906488419;1.221433997;1.222239017;0.002000000095;100;0.0007155388594;0;0;0;0.001000000047;1;0;0;0
184.81995;-0.004003158771;0;350;0;-29.0859375;0;0;0;0;2.117604494;-20.48226929;-0.5026962757;4074.22876;15;0;0;0;0;0;0;0;0;0;0;0;0;0;0;0;0.001000000047;0;0;0;0;0;1.329670429;1.325148463;1000;0.0003906488419;1.221433997;1.222239017;0.002000000095;100;0.0007167430012;0;0;0;0.001000000047;1;0;0;0
184.821;-0.004003158771;0;350;0;-29.0859375;0;0;0;0;2.117604494;-20.48226929;-0.5026962757;4074.22876;15;0;0;0;0;0;0;0;0;0;0;0;0;0;0;0;0.001000000047;0;0;0;0;0;1.30891335;1.322990298;1000;0.0003906488419;1.221433997;1.222239017;0.002000000095;100;0.0007194031496;0;0;0;0.001000000047;1;0;0;0
184.82205;-0.004003158771;0;350;0;-29.0859375;0;0;0;0;2.117604494;-20.48226929;-0.5026962757;4074.22876;15;0;0;0;0;0;0;0;0;0;0;0;0;0;0;0;0.001000000047;0;0;0;0;0;1.296092868;1.320806384;1000;0.0003906488419;1.221433997;1.222239017;0.002000000095;100;0.0007235034718;0;0;0;0.001000000047;1;0;0;0
184.8231;-0.004003158771;0;350;0;-29.0859375;0;0;0;0;2.117604494;-20.48226929;-0.5026962757;4074.22876;15;0;0;0;0;0;0;0;0;0;0;0;0;0;0;0;0.001000000047;0;0;0;0;0;1.241758227;1.316654086;1000;0.0003906488419;1.221433997;1.222239017;0.002000000095;100;0.0007294528768;0;0;0;0.001000000047;1;0;0;0
184.8238;-0.004003158771;0;350;0;-29.0859375;0;0;0;0;2.117604494;-20.48226929;-0.5026962757;4074.22876;15;0;0;0;0;0;0;0;0;0;0;0;0;0;0;0;0.001000000047;0;0;0;0;0;1.311355352;1.316604018;1000;0.0003906488419;1.221433997;1.222239017;0.002000000095;100;0.0007329314831;0;0;0;0.001000000047;1;0;0;0
184.82485;-0.004003158771;0;350;0;-29.0859375;0;0;0;0;2.117604494;-20.48226929;-0.5026962757;4074.22876;15;0;0;0;0;0;0;0;0;0;0;0;0;0;0;0;0.001000000047;0;0;0;0;0;1.316239357;1.315080523;1000;0.0003906488419;1.221433997;1.222239017;0.002000000095;100;0.0007357844734;0;0;0;0.001000000047;1;0;0;0
184.8259;-0.004003158771;0;350;0;-29.0859375;0;0;0;0;2.117604494;-20.48226929;-0.5026962757;4074.22876;15;0;0;0;0;0;0;0;0;0;0;0;0;0;0;0;0.001000000047;0;0;0;0;0;1.324175835;1.313275456;1000;0.0003906488419;1.221433997;1.222239017;0.002000000095;100;0.000737724069;0;0;0;0.001000000047;1;0;0;0
184.82695;-0.004003158771;0;350;0;-29.0859375;0;0;0;0;2.117604494;-20.48226929;-0.5026962757;4074.22876;15;0;0;0;0;0;0;0;0;0;0;0;0;0;0;0;0.001000000047;0;0;0;0;0;1.318681359;1.308686256;1000;0.0003906488419;1.221433997;1.222239017;0.002000000095;100;0.0007393540582;0;0;0;0.001000000047;1;0;0;0
184.828;-0.004003158771;0;350;0;-29.0859375;0;0;0;0;2.117604494;-20.48226929;-0.5026962757;4074.22876;15;0;0;0;0;0;0;0;0;0;0;0;0;0;0;0;0.001000000047;0;0;0;0;0;1.323565364;1.308154225;1000;0.0003906488419;1.221433997;1.222239017;0.002000000095;100;0.0007411446422;0;0;0;0.001000000047;1;0;0;0
184.82905;-0.004003158771;0;350;0;-29.0859375;0;0;0;0;2.117604494;-20.48226929;-0.5026962757;4074.22876;15;0;0;0;0;0;0;0;0;0;0;0;0;0;0;0;0.001000000047;0;0;0;0;0;1.317460418;1.308142066;1000;0.0003906488419;1.221433997;1.222239017;0.002000000095;100;0.0007417801535;0;0;0;0.001000000047;1;0;0;0
184.82975;-0.004003158771;0;350;0;-29.0859375;0;0;0;0;2.117604494;-20.48226929;-0.5026962757;4074.22876;15;0;0;0;0;0;0;0;0;0;0;0;0;0;0;0;0.001000000047;0;0;0;0;0;1.243589759;1.306915879;1000;0.0003906488419;1.221433997;1.222239017;0.002000000095;100;0.0007410432445;0;0;0;0.001000000047;1;0;0;0
184.8308;-0.004003158771;0;350;0;-29.0859375;0;0;0;0;2.117604494;-20.48226929;-0.5026962757;4074.22876;15;0;0;0;0;0;0;0;0;0;0;0;0;0;0;0;0.001000000047;0;0;0;0;0;1.324786425;1.308632016;1000;0.0003906488419;1.221433997;1.222239017;0.002000000095;100;0.0007379729068;0;0;0;0.001000000047;1;0;0;0
184.83185;-0.004003158771;0;350;0;-29.0859375;0;0;0;0;2.117604494;-20.48226929;-0.5026962757;4074.22876;15;0;0;0;0;0;0;0;0;0;0;0;0;0;0;0;0.001000000047;0;0;0;0;0;1.341880441;1.311394215;1000;0.0003906488419;1.221433997;1.222239017;0.002000000095;100;0.0007328840438;0;0;0;0.001000000047;1;0;0;0
184.8329;-0.004003158771;0;350;0;-29.0859375;0;0;0;0;2.117604494;-20.48226929;-0.5026962757;4074.22876;15;0;0;0;0;0;0;0;0;0;0;0;0;0;0;0;0.001000000047;0;0;0;0;0;1.354090452;1.311027884;1000;0.0003906488419;1.221433997;1.222239017;0.002000000095;100;0.0007280399441;0;0;0;0.001000000047;1;0;0;0
184.83395;-0.004003158771;0;350;0;-29.0859375;0;0;0;0;2.117604494;-20.48226929;-0.5026962757;4074.22876;15;0;0;0;0;0;0;0;0;0;0;0;0;0;0;0;0.001000000047;0;0;0;0;0;1.363247871;1.310984492;1000;0.0003906488419;1.221433997;1.222239017;0.002000000095;100;0.0007254800294;0;0;0;0.001000000047;1;0;0;0
184.835;-0.004003158771;0;350;0;-29.0859375;0;0;0;0;2.117604494;-20.48226929;-0.5026962757;4074.22876;15;0;0;0;0;0;0;0;0;0;0;0;0;0;0;0;0.001000000047;0;0;0;0;0;1.358974457;1.312779069;1000;0.0003906488419;1.221433997;1.222239017;0.002000000095;100;0.0007242113934;0;0;0;0.001000000047;1;0;0;0
184.83605;-0.004003158771;0;350;0;-29.0859375;0;0;0;0;2.117604494;-20.48226929;-0.5026962757;4074.22876;15;0;0;0;0;0;0;0;0;0;0;0;0;0;0;0;0.001000000047;0;0;0;0;0;1.336385965;1.315729499;1000;0.0003906488419;1.221433997;1.222239017;0.002000000095;100;0.0007235837984;0;0;0;0.001000000047;1;0;0;0
184.83675;-0.004003158771;0;350;0;-29.0859375;0;0;0;0;2.117604494;-20.48226929;-0.5026962757;4074.22876;15;0;0;0;0;0;0;0;0;0;0;0;0;0;0;0;0.001000000047;0;0;0;0;0;1.326617956;1.317187667;1000;0.0003906488419;1.221433997;1.222239017;0.002000000095;100;0.0007235088269;0;0;0;0.001000000047;1;0;0;0
184.8378;-0.004003158771;0;350;0;-29.0859375;0;0;0;0;2.117604494;-20.48226929;-0.5026962757;4074.22876;15;0;0;0;0;0;0;0;0;0;0;0;0;0;0;0;0.001000000047;0;0;0;0;0;1.318681359;1.318243504;1000;0.0003906488419;1.221433997;1.222239017;0.002000000095;100;0.0007241922431;0;0;0;0.001000000047;1;0;0;0
184.83885;-0.004003158771;0;350;0;-29.0859375;0;0;0;0;2.117604494;-20.48226929;-0.5026962757;4074.22876;15;0;0;0;0;0;0;0;0;0;0;0;0;0;0;0;0.001000000047;0;0;0;0;0;1.323565364;1.31879437;1000;0.0003906488419;1.221433997;1.222239017;0.002000000095;100;0.0007265395834;0;0;0;0.001000000047;1;0;0;0
184.8399;-0.004003158771;0;350;0;-29.0859375;0;0;0;0;2.117604494;-20.48226929;-0.5026962757;4074.22876;15;0;0;0;0;0;0;0;0;0;0;0;0;0;0;0;0.001000000047;0;0;0;0;0;1.3302809;1.31757772;1000;0.0003906488419;1.221433997;1.222239017;0.002000000095;100;0.0007305459003;0;0;0;0.001000000047;1;0;0;0
184.84095;-0.004003158771;0;350;0;-29.0859375;0;0;0;0;2.117604494;-20.48226929;-0.5026962757;4074.22876;15;0;0;0;0;0;0;0;0;0;0;0;0;0;0;0;0.001000000047;0;0;0;0;0;1.329059839;1.312860727;1000;0.0003906488419;1.221433997;1.222239017;0.002000000095;100;0.0007362618926;0;0;0;0.001000000047;1;0;0;0
184.842;-0.004003158771;0;350;0;-29.0859375;0;0;0;0;2.117604494;-20.48226929;-0.5026962757;4074.22876;15;0;0;0;0;0;0;0;0;0;0;0;0;0;0;0;0.001000000047;0;0;0;0;0;1.31929183;1.311786652;1000;0.0003906488419;1.221433997;1.222239017;0.002000000095;100;0.0007437287131;0;0;0;0.001000000047;1;0;0;0
184.84305;-0.004003158771;0;350;0;-29.0859375;0;0;0;0;2.117604494;-20.48226929;-0.5026962757;4074.22876;15;0;0;0;0;0;0;0;0;0;0;0;0;0;0;0;0.001000000047;0;0;0;0;0;1.299755812;1.310595155;1000;0.0003906488419;1.221433997;1.222239017;0.002000000095;100;0.0007529574796;0;0;0;0.001000000047;1;0;0;0
184.84375;-0.004003158771;0;350;0;-29.0859375;0;0;0;0;2.117604494;-20.48226929;-0.5026962757;4074.22876;15;0;0;0;0;0;0;0;0;0;0;0;0;0;0;0;0.001000000047;0;0;0;0;0;1.329059839;1.31156683;1000;0.0003906488419;1.221433997;1.222239017;0.002000000095;100;0.0007599667297;0;0;0;0.001000000047;1;0;0;0
184.8448;-0.004003158771;0;350;0;-29.0859375;0;0;0;0;2.117604494;-20.48226929;-0.5026962757;4074.22876;15;0;0;0;0;0;0;0;0;0;0;0;0;0;0;0;0.001000000047;0;0;0;0;0;1.305860877;1.311585307;1000;0.0003906488419;1.221433997;1.222239017;0.002000000095;100;0.000771628751;0;0;0;0.001000000047;1;0;0;0
184.84585;-0.004003158771;0;350;0;-29.0859375;0;0;0;0;2.117604494;-20.48226929;-0.5026962757;4074.22876;15;0;0;0;0;0;0;0;0;0;0;0;0;0;0;0;0.001000000047;0;0;0;0;0;1.314407825;1.310685039;1000;0.0003906488419;1.221433997;1.222239017;0.002000000095;100;0.0007837591111;0;0;0;0.001000000047;1;0;0;0
184.8469;-0.004003158771;0;350;0;-29.0859375;0;0;0;0;2.117604494;-20.48226929;-0.5026962757;4074.22876;15;0;0;0;0;0;0;0;0;0;0;0;0;0;0;0;0.001000000047;0;0;0;0;0;1.325396895;1.308588147;1000;0.0003906488419;1.221433997;1.222239017;0.002000000095;100;0.0007946075639;0;0;0;0.001000000047;1;0;0;0
184.84795;-0.004003158771;0;350;0;-29.0859375;0;0;0;0;2.117604494;-20.48226929;-0.5026962757;4074.22876;15;0;0;0;0;0;0;0;0;0;0;0;0;0;0;0;0.001000000047;0;0;0;0;0;1.332112432;1.308244824;1000;0.0003906488419;1.221433997;1.222239017;0.002000000095;100;0.0008040581597;0;0;0;0.001000000047;1;0;0;0
184.849;-0.004003158771;0;350;0;-29.0859375;0;0;0;0;2.117604494;-20.48226929;-0.5026962757;4074.22876;15;0;0;0;0;0;0;0;0;0;0;0;0;0;0;0;0.001000000047;0;0;0;0;0;1.338217378;1.308623791;1000;0.0003906488419;1.221433997;1.222239017;0.002000000095;100;0.0008121713181;0;0;0;0.001000000047;1;0;0;0
184.85005;-0.004003158771;0;350;0;-29.0859375;0;0;0;0;2.117604494;-20.48226929;-0.5026962757;4074.22876;15;0;0;0;0;0;0;0;0;0;0;0;0;0;0;0;0.001000000047;0;0;0;0;0;1.333943844;1.308983684;1000;0.0003906488419;1.221433997;1.222239017;0.002000000095;100;0.0008198937285;0;0;0;0.001000000047;1;0;0;0
184.85075;-0.004003158771;0;350;0;-29.0859375;0;0;0;0;2.117604494;-20.48226929;-0.5026962757;4074.22876;15;0;0;0;0;0;0;0;0;0;0;0;0;0;0;0;0.001000000047;0;0;0;0;0;1.290598392;1.309300303;1000;0.0003906488419;1.221433997;1.222239017;0.002000000095;100;0.0008245685021;0;0;0;0.001000000047;1;0;0;0
184.8518;-0.004003158771;0;350;0;-29.0859375;0;0;0;0;2.117604494;-20.48226929;-0.5026962757;4074.22876;15;0;0;0;0;0;0;0;0;0;0;0;0;0;0;0;0.001000000047;0;0;0;0;0;1.320512891;1.31097281;1000;0.0003906488419;1.221433997;1.222239017;0.002000000095;100;0.0008301434573;0;0;0;0.001000000047;1;0;0;0
184.85285;-0.004003158771;0;350;0;-29.0859375;0;0;0;0;2.117604494;-20.48226929;-0.5026962757;4074.22876;15;0;0;0;0;0;0;0;0;0;0;0;0;0;0;0;0.001000000047;0;0;0;0;0;1.336385965;1.310866117;1000;0.0003906488419;1.221433997;1.222239017;0.002000000095;100;0.0008347413968;0;0;0;0.001000000047;1;0;0;0
184.8539;-0.004003158771;0;350;0;-29.0859375;0;0;0;0;2.117604494;-20.48226929;-0.5026962757;4074.22876;15;0;0;0;0;0;0;0;0;0;0;0;0;0;0;0;0.001000000047;0;0;0;0;0;1.352258921;1.313571572;1000;0.0003906488419;1.221433997;1.222239017;0.002000000095;100;0.0008403044776;0;0;0;0.001000000047;1;0;0;0
184.85495;-0.004003158771;0;350;0;-29.0859375;0;0;0;0;2.117604494;-20.48226929;-0.5026962757;4074.22876;15;0;0;0;0;0;0;0;0;0;0;0;0;0;0;0;0.001000000047;0;0;0;0;0;1.36202693;1.316059351;1000;0.0003906488419;1.221433997;1.222239017;0.002000000095;100;0.0008446212159;0;0;0;0.001000000047;1;0;0;0
184.856;-0.004003158771;0;350;0;-29.0859375;0;0;0;0;2.117604494;-20.48226929;-0.5026962757;4074.22876;15;0;0;0;0;0;0;0;0;0;0;0;0;0;0;0;0.001000000047;0;0;0;0;0;1.358363867;1.31448245;1000;0.0003906488419;1.221433997;1.222239017;0.002000000095;100;0.000847145915;0;0;0;0.001000000047;1;0;0;0
184.8567;-0.004003158771;0;350;0;-29.0859375;0;0;0;0;2.117604494;-20.48226929;-0.5026962757;4074.22876;15;0;0;0;0;0;0;0;0;0;0;0;0;0;0;0;0.001000000047;0;0;0;0;0;1.338217378;1.315955162;1000;0.0003906488419;1.221433997;1.222239017;0.002000000095;100;0.0008483545389;0;0;0;0.001000000047;1;0;0;0
184.85775;-0.004003158771;0;350;0;-29.0859375;0;0;0;0;2.117604494;-20.48226929;-0.5026962757;4074.22876;15;0;0;0;0;0;0;0;0;0;0;0;0;0;0;0;0.001000000047;0;0;0;0;0;1.328449368;1.317413211;1000;0.0003906488419;1.221433997;1.222239017;0.002000000095;100;0.0008488469757;0;0;0;0.001000000047;1;0;0;0
184.8588;-0.004003158771;0;350;0;-29.0859375;0;0;0;0;2.117604494;-20.48226929;-0.5026962757;4074.22876;15;0;0;0;0;0;0;0;0;0;0;0;0;0;0;0;0.001000000047;0;0;0;0;0;1.311355352;1.316907525;1000;0.0003906488419;1.221433997;1.222239017;0.002000000095;100;0.0008478630334;0;0;0;0.001000000047;1;0;0;0
184.85985;-0.004003158771;0;350;0;-29.0859375;0;0;0;0;2.117604494;-20.48226929;-0.5026962757;4074.22876;15;0;0;0;0;0;0;0;0;0;0;0;0;0;0;0;0.001000000047;0;0;0;0;0;1.31929183;1.316824555;1000;0.0003906488419;1.221433997;1.222239017;0.002000000095;100;0.0008482521516;0;0;0;0.001000000047;1;0;0;0
184.8609;-0.004003158771;0;350;0;-29.0859375;0;0;0;0;2.117604494;-20.48226929;-0.5026962757;4074.22876;15;0;0;0;0;0;0;0;0;0;0;0;0;0;0;0;0.001000000047;0;0;0;0;0;1.324786425;1.316945791;1000;0.0003906488419;1.221433997;1.222239017;0.002000000095;100;0.0008495075745;0;0;0;0.001000000047;1;0;0;0
184.86195;-0.004003158771;0;350;0;-29.0859375;0;0;0;0;2.117604494;-20.48226929;-0.5026962757;4074.22876;15;0;0;0;0;0;0;0;0;0;0;0;0;0;0;0;0.001000000047;0;0;0;0;0;1.329670429;1.316347718;1000;0.0003906488419;1.221433997;1.222239017;0.002000000095;100;0.000851005374;0;0;0;0.001000000047;1;0;0;0
184.863;-0.004003158771;0;350;0;-29.0859375;0;0;0;0;2.117604494;-20.48226929;-0.5026962757;4074.22876;15;0;0;0;0;0;0;0;0;0;0;0;0;0;0;0;0.001000000047;0;0;0;0;0;1.322344422;1.314733386;1000;0.0003906488419;1.221433997;1.222239017;0.002000000095;100;0.0008532723878;0;0;0;0.001000000047;1;0;0;0
184.8637;-0.004003158771;0;350;0;-29.0859375;0;0;0;0;2.117604494;-20.48226929;-0.5026962757;4074.22876;15;0;0;0;0;0;0;0;0;0;0;0;0;0;0;0;0.001000000047;0;0;0;0;0;1.297924399;1.31405437;1000;0.0003906488419;1.221433997;1.222239017;0.002000000095;100;0.0008555519744;0;0;0;0.001000000047;1;0;0;0
184.86475;-0.004003158771;0;350;0;-29.0859375;0;0;0;0;2.117604494;-20.48226929;-0.5026962757;4074.22876;15;0;0;0;0;0;0;0;0;0;0;0;0;0;0;0;0.001000000047;0;0;0;0;0;1.208791256;1.310774088;1000;0.0003906488419;1.221433997;1.222239017;0.002000000095;100;0.0008599187713;0;0;0;0.001000000047;1;0;0;0
184.8658;-0.004003158771;0;350;0;-29.0859375;0;0;0;0;2.117604494;-20.48226929;-0.5026962757;4074.22876;15;0;0;0;0;0;0;0;0;0;0;0;0;0;0;0;0.001000000047;0;0;0;0;0;1.324175835;1.311050653;1000;0.0003906488419;1.221433997;1.222239017;0.002000000095;100;0.0008674133569;0;0;0;0.001000000047;1;0;0;0
184.86685;-0.004003158771;0;350;0;-29.0859375;0;0;0;0;2.117604494;-20.48226929;-0.5026962757;4074.22876;15;0;0;0;0;0;0;0;0;0;0;0;0;0;0;0;0.001000000047;0;0;0;0;0;1.310744882;1.311570168;1000;0.0003906488419;1.221433997;1.222239017;0.002000000095;100;0.0008770341519;0;0;0;0.001000000047;1;0;0;0
184.8679;-0.004003158771;0;350;0;-29.0859375;0;0;0;0;2.117604494;-20.48226929;-0.5026962757;4074.22876;15;0;0;0;0;0;0;0;0;0;0;0;0;0;0;0;0.001000000047;0;0;0;0;0;1.321123362;1.309901595;1000;0.0003906488419;1.221433997;1.222239017;0.002000000095;100;0.0008852495812;0;0;0;0.001000000047;1;0;0;0
184.86895;-0.004003158771;0;350;0;-29.0859375;0;0;0;0;2.117604494;-20.48226929;-0.5026962757;4074.22876;15;0;0;0;0;0;0;0;0;0;0;0;0;0;0;0;0.001000000047;0;0;0;0;0;1.333333373;1.310387969;1000;0.0003906488419;1.221433997;1.222239017;0.002000000095;100;0.0008894068887;0;0;0;0.001000000047;1;0;0;0
184.87;-0.004003158771;0;350;0;-29.0859375;0;0;0;0;2.117604494;-20.48226929;-0.5026962757;4074.22876;15;0;0;0;0;0;0;0;0;0;0;0;0;0;0;0;0.001000000047;0;0;0;0;0;1.343101382;1.308347821;1000;0.0003906488419;1.221433997;1.222239017;0.002000000095;100;0.0008913816418;0;0;0;0.001000000047;1;0;0;0
184.8707;-0.004003158771;0;350;0;-29.0859375;0;0;0;0;2.117604494;-20.48226929;-0.5026962757;4074.22876;15;0;0;0;0;0;0;0;0;0;0;0;0;0;0;0;0.001000000047;0;0;0;0;0;1.320512891;1.309112191;1000;0.0003906488419;1.221433997;1.222239017;0.002000000095;100;0.0008923780406;0;0;0;0.001000000047;1;0;0;0
184.87175;-0.004003158771;0;350;0;-29.0859375;0;0;0;0;2.117604494;-20.48226929;-0.5026962757;4074.22876;15;0;0;0;0;0;0;0;0;0;0;0;0;0;0;0;0.001000000047;0;0;0;0;0;1.285714388;1.310038328;1000;0.0003906488419;1.221433997;1.222239017;0.002000000095;100;0.0008931660559;0;0;0;0.001000000047;1;0;0;0
184.8728;-0.004003158771;0;350;0;-29.0859375;0;0;0;0;2.117604494;-20.48226929;-0.5026962757;4074.22876;15;0;0;0;0;0;0;0;0;0;0;0;0;0;0;0;0.001000000047;0;0;0;0;0;1.285103798;1.311020255;1000;0.0003906488419;1.221433997;1.222239017;0.002000000095;100;0.0008930595359;0;0;0;0.001000000047;1;0;0;0
184.87385;-0.004003158771;0;350;0;-29.0859375;0;0;0;0;2.117604494;-20.48226929;-0.5026962757;4074.22876;15;0;0;0;0;0;0;0;0;0;0;0;0;0;0;0;0.001000000047;0;0;0;0;0;1.331501961;1.31298089;1000;0.0003906488419;1.221433997;1.222239017;0.002000000095;100;0.0008921737317;0;0;0;0.001000000047;1;0;0;0
184.8749;-0.004003158771;0;350;0;-29.0859375;0;0;0;0;2.117604494;-20.48226929;-0.5026962757;4074.22876;15;0;0;0;0;0;0;0;0;0;0;0;0;0;0;0;0.001000000047;0;0;0;0;0;1.343711853;1.315767884;1000;0.0003906488419;1.221433997;1.222239017;0.002000000095;100;0.0008911729092;0;0;0;0.001000000047;1;0;0;0
184.87595;-0.004003158771;0;350;0;-29.0859375;0;0;0;0;2.117604494;-20.48226929;-0.5026962757;4074.22876;15;0;0;0;0;0;0;0;0;0;0;0;0;0;0;0;0.001000000047;0;0;0;0;0;1.35164845;1.317350149;1000;0.0003906488419;1.221433997;1.222239017;0.002000000095;100;0.0008895450155;0;0;0;0.001000000047;1;0;0;0
184.877;-0.004003158771;0;350;0;-29.0859375;0;0;0;0;2.117604494;-20.48226929;-0.5026962757;4074.22876;15;0;0;0;0;0;0;0;0;0;0;0;0;0;0;0;0.001000000047;0;0;0;0;0;1.346153975;1.317819715;1000;0.0003906488419;1.221433997;1.222239017;0.002000000095;100;0.0008851518505;0;0;0;0.001000000047;1;0;0;0
184.8777;-0.004003158771;0;350;0;-29.0859375;0;0;0;0;2.117604494;-20.48226929;-0.5026962757;4074.22876;15;0;0;0;0;0;0;0;0;0;0;0;0;0;0;0;0.001000000047;0;0;0;0;0;1.316849947;1.317853093;1000;0.0003906488419;1.221433997;1.222239017;0.002000000095;100;0.0008811727748;0;0;0;0.001000000047;1;0;0;0
184.87875;-0.004003158771;0;350;0;-29.0859375;0;0;0;0;2.117604494;-20.48226929;-0.5026962757;4074.22876;15;0;0;0;0;0;0;0;0;0;0;0;0;0;0;0;0.001000000047;0;0;0;0;0;1.328449368;1.318518281;1000;0.0003906488419;1.221433997;1.222239017;0.002000000095;100;0.0008738520555;0;0;0;0.001000000047;1;0;0;0
184.8798;-0.004003158771;0;350;0;-29.0859375;0;0;0;0;2.117604494;-20.48226929;-0.5026962757;4074.22876;15;0;0;0;0;0;0;0;0;0;0;0;0;0;0;0;0.001000000047;0;0;0;0;0;1.288766861;1.317146182;1000;0.0003906488419;1.221433997;1.222239017;0.002000000095;100;0.0008656818536;0;0;0;0.001000000047;1;0;0;0
184.88085;-0.004003158771;0;350;0;-29.0859375;0;0;0;0;2.117604494;-20.48226929;-0.5026962757;4074.22876;15;0;0;0;0;0;0;0;0;0;0;0;0;0;0;0;0.001000000047;0;0;0;0;0;1.306471348;1.316027641;1000;0.0003906488419;1.221433997;1.222239017;0.002000000095;100;0.0008576579858;0;0;0;0.001000000047;1;0;0;0
184.8819;-0.004003158771;0;350;0;-29.0859375;0;0;0;0;2.117604494;-20.48226929;-0.5026962757;4074.22876;15;0;0;0;0;0;0;0;0;0;0;0;0;0;0;0;0.001000000047;0;0;0;0;0;1.315628886;1.313250542;1000;0.0003906488419;1.221433997;1.222239017;0.002000000095;100;0.0008506586892;0;0;0;0.001000000047;1;0;0;0
184.88295;-0.004003158771;0;350;0;-29.0859375;0;0;0;0;2.117604494;-20.48226929;-0.5026962757;4074.22876;15;0;0;0;0;0;0;0;0;0;0;0;0;0;0;0;0.001000000047;0;0;0;0;0;1.321733952;1.311912298;1000;0.0003906488419;1.221433997;1.222239017;0.002000000095;100;0.0008440490928;0;0;0;0.001000000047;1;0;0;0
184.88365;-0.004003158771;0;350;0;-29.0859375;0;0;0;0;2.117604494;-20.48226929;-0.5026962757;4074.22876;15;0;0;0;0;0;0;0;0;0;0;0;0;0;0;0;0.001000000047;0;0;0;0;0;1.262515306;1.307883143;1000;0.0003906488419;1.221433997;1.222239017;0.002000000095;100;0.0008378130733;0;0;0;0.001000000047;1;0;0;0
184.8847;-0.004003158771;0;350;0;-29.0859375;0;0;0;0;2.117604494;-20.48226929;-0.5026962757;4074.22876;15;0;0;0;0;0;0;0;0;0;0;0;0;0;0;0;0.001000000047;0;0;0;0;0;1.192307711;1.304319143;1000;0.0003906488419;1.221433997;1.222239017;0.002000000095;100;0.0008339062915;0;0;0;0.001000000047;1;0;0;0
184.88575;-0.004003158771;0;350;0;-29.0859375;0;0;0;0;2.117604494;-20.48226929;-0.5026962757;4074.22876;15;0;0;0;0;0;0;0;0;0;0;0;0;0;0;0;0.001000000047;0;0;0;0;0;1.269841313;1.30379343;1000;0.0003906488419;1.221433997;1.222239017;0.002000000095;100;0.0008299702895;0;0;0;0.001000000047;1;0;0;0
184.8868;-0.004003158771;0;350;0;-29.0859375;0;0;0;0;2.117604494;-20.48226929;-0.5026962757;4074.22876;15;0;0;0;0;0;0;0;0;0;0;0;0;0;0;0;0.001000000047;0;0;0;0;0;1.307081938;1.304329634;1000;0.0003906488419;1.221433997;1.222239017;0.002000000095;100;0.0008279627655;0;0;0;0.001000000047;1;0;0;0
184.88785;-0.004003158771;0;350;0;-29.0859375;0;0;0;0;2.117604494;-20.48226929;-0.5026962757;4074.22876;15;0;0;0;0;0;0;0;0;0;0;0;0;0;0;0;0.001000000047;0;0;0;0;0;1.317460418;1.304639697;1000;0.0003906488419;1.221433997;1.222239017;0.002000000095;100;0.0008257118752;0;0;0;0.001000000047;1;0;0;0
184.8889;-0.004003158771;0;350;0;-29.0859375;0;0;0;0;2.117604494;-20.48226929;-0.5026962757;4074.22876;15;0;0;0;0;0;0;0;0;0;0;0;0;0;0;0;0.001000000047;0;0;0;0;0;1.310134411;1.305423141;1000;0.0003906488419;1.221433997;1.222239017;0.002000000095;100;0.0008210255764;0;0;0;0.001000000047;1;0;0;0
184.88995;-0.004003158771;0;350;0;-29.0859375;0;0;0;0;2.117604494;-20.48226929;-0.5026962757;4074.22876;15;0;0;0;0;0;0;0;0;0;0;0;0;0;0;0;0.001000000047;0;0;0;0;0;1.322344422;1.303462625;1000;0.0003906488419;1.221433997;1.222239017;0.002000000095;100;0.0008169284556;0;0;0;0.001000000047;1;0;0;0
184.89065;-0.004003158771;0;350;0;-29.0859375;0;0;0;0;2.117604494;-20.48226929;-0.5026962757;4074.22876;15;0;0;0;0;0;0;0;0;0;0;0;0;0;0;0;0.001000000047;0;0;0;0;0;1.296703339;1.302849054;1000;0.0003906488419;1.221433997;1.222239017;0.002000000095;100;0.0008143673767;0;0;0;0.001000000047;1;0;0;0
184.8917;-0.004003158771;0;350;0;-29.0859375;0;0;0;0;2.117604494;-20.48226929;-0.5026962757;4074.22876;15;0;0;0;0;0;0;0;0;0;0;0;0;0;0;0;0.001000000047;0;0;0;0;0;1.200854659;1.299450397;1000;0.0003906488419;1.221433997;1.222239017;0.002000000095;100;0.0008094625082;0;0;0;0.001000000047;1;0;0;0
184.89275;-0.004003158771;0;350;0;-29.0859375;0;0;0;0;2.117604494;-20.48226929;-0.5026962757;4074.22876;15;0;0;0;0;0;0;0;0;0;0;0;0;0;0;0;0.001000000047;0;0;0;0;0;1.209401727;1.298276424;1000;0.0003906488419;1.221433997;1.222239017;0.002000000095;100;0.0008051501354;0;0;0;0.001000000047;1;0;0;0
184.8938;-0.004003158771;0;350;0;-29.0859375;0;0;0;0;2.117604494;-20.48226929;-0.5026962757;4074.22876;15;0;0;0;0;0;0;0;0;0;0;0;0;0;0;0;0.001000000047;0;0;0;0;0;1.311965942;1.30066371;1000;0.0003906488419;1.221433997;1.222239017;0.002000000095;100;0.0008022565162;0;0;0;0.001000000047;1;0;0;0
184.89485;-0.004003158771;0;350;0;-29.0859375;0;0;0;0;2.117604494;-20.48226929;-0.5026962757;4074.22876;15;0;0;0;0;0;0;0;0;0;0;0;0;0;0;0;0.001000000047;0;0;0;0;0;1.228937745;1.299948335;1000;0.0003906488419;1.221433997;1.222239017;0.002000000095;100;0.0007998381043;0;0;0;0.001000000047;1;0;0;0
184.8959;-0.004003158771;0;350;0;-29.0859375;0;0;0;0;2.117604494;-20.48226929;-0.5026962757;4074.22876;15;0;0;0;0;0;0;0;0;0;0;0;0;0;0;0;0.001000000047;0;0;0;0;0;1.331501961;1.301369905;1000;0.0003906488419;1.221433997;1.222239017;0.002000000095;100;0.0007974217297;0;0;0;0.001000000047;1;0;0;0
184.89695;-0.004003158771;0;350;0;-29.0859375;0;0;0;0;2.117604494;-20.48226929;-0.5026962757;4074.22876;15;0;0;0;0;0;0;0;0;0;0;0;0;0;0;0;0.001000000047;0;0;0;0;0;1.332112432;1.303088665;1000;0.0003906488419;1.221433997;1.222239017;0.002000000095;100;0.0007953127497;0;0;0;0.001000000047;1;0;0;0
184.89765;-0.004003158771;0;350;0;-29.0859375;0;0;0;0;2.117604494;-20.48226929;-0.5026962757;4074.22876;15;0;0;0;0;0;0;0;0;0;0;0;0;0;0;0;0.001000000047;0;0;0;0;0;1.288766861;1.302811265;1000;0.0003906488419;1.221433997;1.222239017;0.002000000095;100;0.0007933045854;0;0;0;0.001000000047;1;0;0;0
184.8987;-0.004003158771;0;350;0;-29.0859375;0;0;0;0;2.117604494;-20.48226929;-0.5026962757;4074.22876;15;0;0;0;0;0;0;0;0;0;0;0;0;0;0;0;0.001000000047;0;0;0;0;0;1.311965942;1.303776264;1000;0.0003906488419;1.221433997;1.222239017;0.002000000095;100;0.0007886907551;0;0;0;0.001000000047;1;0;0;0
184.89975;-0.004003158771;0;350;0;-29.0859375;0;0;0;0;2.117604494;-20.48226929;-0.5026962757;4074.22876;15;0;0;0;0;0;0;0;0;0;0;0;0;0;0;0;0.001000000047;0;0;0;0;0;1.208791256;1.301330209;1000;0.0003906488419;1.221433997;1.222239017;0.002000000095;100;0.0007830861723;0;0;0;0.001000000047;1;0;0;0
184.9008;-0.004003158771;0;350;0;-29.0859375;0;0;0;0;2.117604494;-20.48226929;-0.5026962757;4074.22876;15;0;0;0;0;0;0;0;0;0;0;0;0;0;0;0;0.001000000047;0;0;0;0;0;1.309523821;1.302114964;1000;0.0003906488419;1.221433997;1.222239017;0.002000000095;100;0.0007735159015;0;0;0;0.001000000047;1;0;0;0
184.90185;-0.004003158771;0;350;0;-29.0859375;0;0;0;0;2.117604494;-20.48226929;-0.5026962757;4074.22876;15;0;0;0;0;0;0;0;0;0;0;0;0;0;0;0;0.001000000047;0;0;0;0;0;1.299145341;1.302156925;1000;0.0003906488419;1.221433997;1.222239017;0.002000000095;100;0.0007620349061;0;0;0;0.001000000047;1;0;0;0
184.9029;-0.004003158771;0;350;0;-29.0859375;0;0;0;0;2.117604494;-20.48226929;-0.5026962757;4074.22876;15;0;0;0;0;0;0;0;0;0;0;0;0;0;0;0;0.001000000047;0;0;0;0;0;1.308302879;1.301898122;1000;0.0003906488419;1.221433997;1.222239017;0.002000000095;100;0.00075200625;0;0;0;0.001000000047;1;0;0;0
184.90395;-0.004003158771;0;350;0;-29.0859375;0;0;0;0;2.117604494;-20.48226929;-0.5026962757;4074.22876;15;0;0;0;0;0;0;0;0;0;0;0;0;0;0;0;0.001000000047;0;0;0;0;0;1.316239357;1.302928925;1000;0.0003906488419;1.221433997;1.222239017;0.002000000095;100;0.0007442708593;0;0;0;0.001000000047;1;0;0;0
184.90465;-0.004003158771;0;350;0;-29.0859375;0;0;0;0;2.117604494;-20.48226929;-0.5026962757;4074.22876;15;0;0;0;0;0;0;0;0;0;0;0;0;0;0;0;0.001000000047;0;0;0;0;0;1.280830383;1.30287993;1000;0.0003906488419;1.221433997;1.222239017;0.002000000095;100;0.0007395237917;0;0;0;0.001000000047;1;0;0;0
184.9057;-0.004003158771;0;350;0;-29.0859375;0;0;0;0;2.117604494;-20.48226929;-0.5026962757;4074.22876;15;0;0;0;0;0;0;0;0;0;0;0;0;0;0;0;0.001000000047;0;0;0;0;0;1.305250406;1.303329587;1000;0.0003906488419;1.221433997;1.222239017;0.002000000095;100;0.0007321478915;0;0;0;0.001000000047;1;0;0;0
184.90675;-0.004003158771;0;350;0;-29.0859375;0;0;0;0;2.117604494;-20.48226929;-0.5026962757;4074.22876;15;0;0;0;0;0;0;0;0;0;0;0;0;0;0;0;0.001000000047;0;0;0;0;0;1.27777791;1.302994013;1000;0.0003906488419;1.221433997;1.222239017;0.002000000095;100;0.0007240602863;0;0;0;0.001000000047;1;0;0;0
184.9078;-0.004003158771;0;350;0;-29.0859375;0;0;0;0;2.117604494;-20.48226929;-0.5026962757;4074.22876;15;0;0;0;0;0;0;0;0;0;0;0;0;0;0;0;0.001000000047;0;0;0;0;0;1.26678884;1.302343011;1000;0.0003906488419;1.221433997;1.222239017;0.002000000095;100;0.0007158562075;0;0;0;0.001000000047;1;0;0;0
184.90885;-0.004003158771;0;350;0;-29.0859375;0;0;0;0;2.117604494;-20.48226929;-0.5026962757;4074.22876;15;0;0;0;0;0;0;0;0;0;0;0;0;0;0;0;0.001000000047;0;0;0;0;0;1.264346838;1.301578045;1000;0.0003906488419;1.221433997;1.222239017;0.002000000095;100;0.0007084251265;0;0;0;0.001000000047;1;0;0;0
184.9099;-0.004003158771;0;350;0;-29.0859375;0;0;0;0;2.117604494;-20.48226929;-0.5026962757;4074.22876;15;0;0;0;0;0;0;0;0;0;0;0;0;0;0;0;0.001000000047;0;0;0;0;0;1.306471348;1.302000642;1000;0.0003906488419;1.221433997;1.222239017;0.002000000095;100;0.0007019314799;0;0;0;0.001000000047;1;0;0;0
184.91095;-0.004003158771;0;350;0;-29.0859375;0;0;0;0;2.117604494;-20.48226929;-0.5026962757;4074.22876;15;0;0;0;0;0;0;0;0;0;0;0;0;0;0;0;0.001000000047;0;0;0;0;0;1.321733952;1.3034513;1000;0.0003906488419;1.221433997;1.222239017;0.002000000095;100;0.0006957064033;0;0;0;0.001000000047;1;0;0;0
184.91165;-0.004003158771;0;350;0;-29.0859375;0;0;0;0;2.117604494;-20.48226929;-0.5026962757;4074.22876;15;0;0;0;0;0;0;0;0;0;0;0;0;0;0;0;0.001000000047;0;0;0;0;0;1.316239357;1.302933812;1000;0.0003906488419;1.221433997;1.222239017;0.002000000095;100;0.0006923822802;0;0;0;0.001000000047;1;0;0;0
184.9127;-0.004003158771;0;350;0;-29.0859375;0;0;0;0;2.117604494;-20.48226929;-0.5026962757;4074.22876;15;0;0;0;0;0;0;0;0;0;0;0;0;0;0;0;0.001000000047;0;0;0;0;0;1.299755812;1.30394268;1000;0.0003906488419;1.221433997;1.222239017;0.002000000095;100;0.0006884144968;0;0;0;0.001000000047;1;0;0;0
184.91375;-0.004003158771;0;350;0;-29.0859375;0;0;0;0;2.117604494;-20.48226929;-0.5026962757;4074.22876;15;0;0;0;0;0;0;0;0;0;0;0;0;0;0;0;0.001000000047;0;0;0;0;0;1.325396895;1.306366563;1000;0.0003906488419;1.221433997;1.222239017;0.002000000095;100;0.0006862737355;0;0;0;0.001000000047;1;0;0;0
184.9148;-0.004003158771;0;350;0;-29.0859375;0;0;0;0;2.117604494;-20.48226929;-0.5026962757;4074.22876;15;0;0;0;0;0;0;0;0;0;0;0;0;0;0;0;0.001000000047;0;0;0;0;0;1.254578829;1.306812644;1000;0.0003906488419;1.221433997;1.222239017;0.002000000095;100;0.0006857650005;0;0;0;0.001000000047;1;0;0;0
184.91585;-0.004003158771;0;350;0;-29.0859375;0;0;0;0;2.117604494;-20.48226929;-0.5026962757;4074.22876;15;0;0;0;0;0;0;0;0;0;0;0;0;0;0;0;0.001000000047;0;0;0;0;0;1.344322443;1.310021996;1000;0.0003906488419;1.221433997;1.222239017;0.002000000095;100;0.0006861287984;0;0;0;0.001000000047;1;0;0;0
184.9169;-0.004003158771;0;350;0;-29.0859375;0;0;0;0;2.117604494;-20.48226929;-0.5026962757;4074.22876;15;0;0;0;0;0;0;0;0;0;0;0;0;0;0;0;0.001000000047;0;0;0;0;0;1.317460418;1.311262846;1000;0.0003906488419;1.221433997;1.222239017;0.002000000095;100;0.0006866739132;0;0;0;0.001000000047;1;0;0;0
184.9176;-0.004003158771;0;350;0;-29.0859375;0;0;0;0;2.117604494;-20.48226929;-0.5026962757;4074.22876;15;0;0;0;0;0;0;0;0;0;0;0;0;0;0;0;0.001000000047;0;0;0;0;0;1.322344422;1.310543656;1000;0.0003906488419;1.221433997;1.222239017;0.002000000095;100;0.0006872623926;0;0;0;0.001000000047;1;0;0;0
184.91865;-0.004003158771;0;350;0;-29.0859375;0;0;0;0;2.117604494;-20.48226929;-0.5026962757;4074.22876;15;0;0;0;0;0;0;0;0;0;0;0;0;0;0;0;0.001000000047;0;0;0;0;0;1.291208863;1.309380889;1000;0.0003906488419;1.221433997;1.222239017;0.002000000095;100;0.0006888460484;0;0;0;0.001000000047;1;0;0;0
184.9197;-0.004003158771;0;350;0;-29.0859375;0;0;0;0;2.117604494;-20.48226929;-0.5026962757;4074.22876;15;0;0;0;0;0;0;0;0;0;0;0;0;0;0;0;0.001000000047;0;0;0;0;0;1.257020831;1.30864799;1000;0.0003906488419;1.221433997;1.222239017;0.002000000095;100;0.0006899117143;0;0;0;0.001000000047;1;0;0;0
184.92075;-0.004003158771;0;350;0;-29.0859375;0;0;0;0;2.117604494;-20.48226929;-0.5026962757;4074.22876;15;0;0;0;0;0;0;0;0;0;0;0;0;0;0;0;0.001000000047;0;0;0;0;0;1.305860877;1.308789492;1000;0.0003906488419;1.221433997;1.222239017;0.002000000095;100;0.0006869602366;0;0;0;0.001000000047;1;0;0;0
184.9218;-0.004003158771;0;350;0;-29.0859375;0;0;0;0;2.117604494;-20.48226929;-0.5026962757;4074.22876;15;0;0;0;0;0;0;0;0;0;0;0;0;0;0;0;0.001000000047;0;0;0;0;0;1.324175835;1.309640288;1000;0.0003906488419;1.221433997;1.222239017;0.002000000095;100;0.0006811366184;0;0;0;0.001000000047;1;0;0;0
184.92285;-0.004003158771;0;350;0;-29.0859375;0;0;0;0;2.117604494;-20.48226929;-0.5026962757;4074.22876;15;0;0;0;0;0;0;0;0;0;0;0;0;0;0;0;0.001000000047;0;0;0;0;0;1.222222209;1.30661428;1000;0.0003906488419;1.221433997;1.222239017;0.002000000095;100;0.0006754682981;0;0;0;0.001000000047;1;0;0;0
184.9239;-0.004003158771;0;350;0;-29.0859375;0;0;0;0;2.117604494;-20.48226929;-0.5026962757;4074.22876;15;0;0;0;0;0;0;0;0;0;0;0;0;0;0;0;0.001000000047;0;0;0;0;0;1.297924399;1.306009889;1000;0.0003906488419;1.221433997;1.222239017;0.002000000095;100;0.0006710859598;0;0;0;0.001000000047;1;0;0;0
184.9246;-0.004003158771;0;350;0;-29.0859375;0;0;0;0;2.117604494;-20.48226929;-0.5026962757;4074.22876;15;0;0;0;0;0;0;0;0;0;0;0;0;0;0;0;0.001000000047;0;0;0;0;0;1.310134411;1.302871943;1000;0.0003906488419;1.221433997;1.222239017;0.002000000095;100;0.0006682089879;0;0;0;0.001000000047;1;0;0;0
184.92565;-0.004003158771;0;350;0;-29.0859375;0;0;0;0;2.117604494;-20.48226929;-0.5026962757;4074.22876;15;0;0;0;0;0;0;0;0;0;0;0;0;0;0;0;0.001000000047;0;0;0;0;0;1.296092868;1.300853848;1000;0.0003906488419;1.221433997;1.222239017;0.002000000095;100;0.0006641387008;0;0;0;0.001000000047;1;0;0;0
184.9267;-0.004003158771;0;350;0;-29.0859375;0;0;0;0;2.117604494;-20.48226929;-0.5026962757;4074.22876;15;0;0;0;0;0;0;0;0;0;0;0;0;0;0;0;0.001000000047;0;0;0;0;0;1.285714388;1.301271558;1000;0.0003906488419;1.221433997;1.222239017;0.002000000095;100;0.0006605155068;0;0;0;0.001000000047;1;0;0;0
184.92775;-0.004003158771;0;350;0;-29.0859375;0;0;0;0;2.117604494;-20.48226929;-0.5026962757;4074.22876;15;0;0;0;0;0;0;0;0;0;0;0;0;0;0;0;0.001000000047;0;0;0;0;0;1.252747297;1.299385071;1000;0.0003906488419;1.221433997;1.222239017;0.002000000095;100;0.0006563471979;0;0;0;0.001000000047;1;0;0;0
184.9288;-0.004003158771;0;350;0;-29.0859375;0;0;0;0;2.117604494;-20.48226929;-0.5026962757;4074.22876;15;0;0;0;0;0;0;0;0;0;0;0;0;0;0;0;0.001000000047;0;0;0;0;0;1.208180666;1.297493815;1000;0.0003906488419;1.221433997;1.222239017;0.002000000095;100;0.0006518958253;0;0;0;0.001000000047;1;0;0;0
184.92985;-0.004003158771;0;350;0;-29.0859375;0;0;0;0;2.117604494;-20.48226929;-0.5026962757;4074.22876;15;0;0;0;0;0;0;0;0;0;0;0;0;0;0;0;0.001000000047;0;0;0;0;0;1.306471348;1.29934895;1000;0.0003906488419;1.221433997;1.222239017;0.002000000095;100;0.0006487825303;0;0;0;0.001000000047;1;0;0;0
184.9309;-0.004003158771;0;350;0;-29.0859375;0;0;0;0;2.117604494;-20.48226929;-0.5026962757;4074.22876;15;0;0;0;0;0;0;0;0;0;0;0;0;0;0;0;0.001000000047;0;0;0;0;0;1.338217378;1.301928759;1000;0.0003906488419;1.221433997;1.222239017;0.002000000095;100;0.0006459905417;0;0;0;0.001000000047;1;0;0;0
184.9316;-0.004003158771;0;350;0;-29.0859375;0;0;0;0;2.117604494;-20.48226929;-0.5026962757;4074.22876;15;0;0;0;0;0;0;0;0;0;0;0;0;0;0;0;0.001000000047;0;0;0;0;0;1.34065938;1.302834153;1000;0.0003906488419;1.221433997;1.222239017;0.002000000095;100;0.0006438386627;0;0;0;0.001000000047;1;0;0;0
184.93265;-0.004003158771;0;350;0;-29.0859375;0;0;0;0;2.117604494;-20.48226929;-0.5026962757;4074.22876;15;0;0;0;0;0;0;0;0;0;0;0;0;0;0;0;0.001000000047;0;0;0;0;0;1.34126997;1.30435729;1000;0.0003906488419;1.221433997;1.222239017;0.002000000095;100;0.0006416883552;0;0;0;0.001000000047;1;0;0;0
184.9337;-0.004003158771;0;350;0;-29.0859375;0;0;0;0;2.117604494;-20.48226929;-0.5026962757;4074.22876;15;0;0;0;0;0;0;0;0;0;0;0;0;0;0;0;0.001000000047;0;0;0;0;0;1.316849947;1.306833267;1000;0.0003906488419;1.221433997;1.222239017;0.002000000095;100;0.0006411732757;0;0;0;0.001000000047;1;0;0;0
184.93475;-0.004003158771;0;350;0;-29.0859375;0;0;0;0;2.117604494;-20.48226929;-0.5026962757;4074.22876;15;0;0;0;0;0;0;0;0;0;0;0;0;0;0;0;0.001000000047;0;0;0;0;0;1.289377332;1.308966398;1000;0.0003906488419;1.221433997;1.222239017;0.002000000095;100;0.0006422644947;0;0;0;0.001000000047;1;0;0;0
184.9358;-0.004003158771;0;350;0;-29.0859375;0;0;0;0;2.117604494;-20.48226929;-0.5026962757;4074.22876;15;0;0;0;0;0;0;0;0;0;0;0;0;0;0;0;0.001000000047;0;0;0;0;0;1.22344327;1.308359623;1000;0.0003906488419;1.221433997;1.222239017;0.002000000095;100;0.0006464152248;0;0;0;0.001000000047;1;0;0;0
184.93685;-0.004003158771;0;350;0;-29.0859375;0;0;0;0;2.117604494;-20.48226929;-0.5026962757;4074.22876;15;0;0;0;0;0;0;0;0;0;0;0;0;0;0;0;0.001000000047;0;0;0;0;0;1.328449368;1.310463786;1000;0.0003906488419;1.221433997;1.222239017;0.002000000095;100;0.0006520577008;0;0;0;0.001000000047;1;0;0;0
184.93755;-0.004003158771;0;350;0;-29.0859375;0;0;0;0;2.117604494;-20.48226929;-0.5026962757;4074.22876;15;0;0;0;0;0;0;0;0;0;0;0;0;0;0;0;0.001000000047;0;0;0;0;0;1.326007366;1.310071349;1000;0.0003906488419;1.221433997;1.222239017;0.002000000095;100;0.000657259603;0;0;0;0.001000000047;1;0;0;0
184.9386;-0.004003158771;0;350;0;-29.0859375;0;0;0;0;2.117604494;-20.48226929;-0.5026962757;4074.22876;15;0;0;0;0;0;0;0;0;0;0;0;0;0;0;0;0.001000000047;0;0;0;0;0;1.316849947;1.308906674;1000;0.0003906488419;1.221433997;1.222239017;0.002000000095;100;0.0006606219686;0;0;0;0.001000000047;1;0;0;0
